146.7885,8.467309320265516,
147.90093352883676,9.829599123625133,
149.01336705767352,12.073353433143096,
150.12580058651025,13.5120486933753,
151.238234115347,15.209396434165216,
152.35066764418377,16.509212910914556,
153.46310117302053,16.52474785392221,
154.5755347018573,16.749202414142832,
155.68796823069403,17.02922110785069,
156.80040175953079,18.15493392023898,
157.91283528836755,18.991883037308472,
159.0252688172043,18.33464523388937,
160.13770234604107,18.546170626176657,
161.2501358748778,17.897460947889478,
162.36256940371456,18.058982283201825,
163.47500293255132,19.059266840922614,
164.58743646138808,19.668452056983103,
165.69986999022484,19.70556880069945,
166.81230351906157,20.29941949699535,
167.92473704789833,23.04887117937781,
169.0371705767351,25.200949822621517,
170.14960410557185,27.069515067778383,
171.2620376344086,28.980633784852568,
172.37447116324535,29.58234541511022,
173.4869046920821,29.070766516316382,
174.59933822091887,28.69552641322594,
175.71177174975563,28.02918724821939,
176.8242052785924,26.120784668789533,
177.93663880742912,25.708070843470942,
179.04907233626588,24.39009482287192,
180.16150586510264,21.374509537799277,
181.2739393939394,18.675996689546345,
182.38637292277616,17.52325313142797,
183.4988064516129,15.477666134117559,
184.61123998044965,13.539347238999808,
185.7236735092864,12.48962751044782,
186.83610703812317,10.187310182069373,
187.94854056695993,9.206244390243656,
189.06097409579667,8.878965647088174,
190.17340762463343,6.110758824975761,
191.2858411534702,4.502926861112693,
192.39827468230695,3.511046613052862,
193.5107082111437,4.166848308742727,
194.62314173998044,4.296844064900363,
195.7355752688172,2.525251530419113,
196.84800879765396,0.8049918733018631,
197.96044232649072,0.8040257791176316,
199.07287585532748,0.3461729675563907,
200.1853093841642,1.1428104967556927,
201.29774291300097,2.102931271328615,
202.41017644183773,2.0408007425630377,
203.5226099706745,1.748483635480403,
204.63504349951126,1.5165475511629067,
205.747477028348,0.49401762218743395,
206.85991055718475,1.3428655073928,
207.9723440860215,0.21346679891514236,
209.08477761485824,0.16554771964362278,
210.19721114369503,0.557564752654254,
211.30964467253176,0.464676797088889,
212.42207820136852,0.9127552432436086,
213.53451173020528,1.526707330911134,
214.646945259042,0.8806351907614011,
215.7593787878788,1.300320648740052,
216.87181231671553,1.3920709299721832,
217.9842458455523,1.053557655685312,
219.09667937438905,1.5220479409456746,
220.2091129032258,2.087961043171339,
221.32154643206258,2.3326049966106335,
222.4339799608993,2.5367730455765156,
223.54641348973607,1.7967755632797373,
224.65884701857283,2.7750749915839616,
225.77128054740956,4.048376518501151,
226.88371407624635,2.72997206702529,
227.99614760508308,1.4437765188091465,
229.10858113391984,1.4881946870856424,
230.2210146627566,2.1171556459520717,
231.33344819159333,3.563188103330292,
232.44588172043012,3.5327630123805314,
233.55831524926685,3.096980896415427,
234.67074877810361,4.763107807978416,
235.78318230694038,5.549516544704934,
236.8956158357771,5.164467650440613,
238.0080493646139,5.733581073761824,
239.12048289345063,7.2771933132580315,
240.2329164222874,8.350119853365117,
241.34534995112415,10.862852263883795,
242.45778347996088,10.49417119932895,
243.57021700879767,11.913070944481095,
244.6826505376344,12.099335433107415,
245.79508406647116,12.333013546112108,
246.90751759530792,14.20419015008801,
248.01995112414465,13.070532680102106,
249.13238465298144,13.088805258520935,
250.24481818181818,13.157140093907337,
251.35725171065494,14.001981997888032,
252.4696852394917,14.82021121963808,
253.58211876832843,15.289244510161728,
254.69455229716522,14.845044375434242,
255.80698582600195,13.184542022095835,
256.91941935483874,12.46136078119249,
258.03185288367547,12.776211483202268,
259.1442864125122,13.334192934074077,
260.256719941349,11.489017676550741,
261.3691534701857,9.328954306258849,
262.4815869990225,8.54886512070319,
263.59402052785924,8.714702612602123,
264.706454056696,8.925566966793005,
265.81888758553276,9.380460795020495,
266.9313211143695,10.344908053654375,
268.0437546432063,9.0200261553473,
269.156188172043,9.664839533653181,
270.26862170087975,10.082978196581303,
271.3810552297165,9.483721474575537,
272.49348875855327,9.45771149035632,
273.60592228739006,9.44786129431902,
274.7183558162268,9.292216431965045,
275.8307893450635,10.444448274220992,
276.94322287390025,9.008949384034747,
278.05565640273704,8.42752475232104,
279.16808993157383,8.652345821097947,
280.28052346041056,8.677625011315353,
281.3929569892473,8.239066282043403,
282.505390518084,7.199225411811498,
283.6178240469208,6.902262812178059,
284.7302575757576,6.3686879954554625,
285.84269110459434,5.4585779503931775,
286.95512463343107,5.09385498848265,
288.0675581622678,4.59080688130012,
289.1799916911046,4.4361178285437886,
290.2924252199414,5.296389456900744,
291.4048587487781,5.6142662384541335,
292.51729227761484,4.749227238215571,
293.6297258064516,5.2649048700577055,
294.74215933528836,5.80002845382259,
295.85459286412515,6.529604366395366,
296.9670263929619,6.622577061616427,
298.0794599217986,6.3121109114323275,
299.19189345063535,6.595483825052802,
300.30432697947214,7.168581409454358,
301.4167605083089,7.373531584827694,
302.52919403714566,7.3311584220386,
303.6416275659824,7.505136461007281,
304.7540610948191,8.863369579950263,
305.8664946236559,9.166337054461545,
306.9789281524927,8.53007069357392,
308.09136168132943,8.638035527097067,
309.20379521016616,9.744202589330289,
310.3162287390029,10.82523941321598,
311.4286622678397,10.945615788020524,
312.5410957966765,10.202131812756969,
313.6535293255132,8.946471581579493,
314.76596285434994,9.117848311725133,
315.87839638318667,9.483034165573802,
316.99082991202346,9.016476303502337,
318.10326344086025,8.48246878691789,
319.215696969697,8.344280282796856,
320.3281304985337,8.545986801922316,
321.44056402737044,7.079104207391779,
322.55299755620723,7.382231240697729,
323.665431085044,6.198482299673695,
324.77786461388075,4.225239901465821,
325.8902981427175,3.8076699082275556,
327.0027316715542,4.227380386388891,
328.115165200391,3.329216746300571,
329.2275987292278,2.777968875659054,
330.3400322580645,4.121892648078032,
331.45246578690126,3.352594809436499,
332.564899315738,2.9530746178228484,
333.6773328445748,2.4183979132461197,
334.78976637341157,1.825415588033409,
335.9021999022483,1.841976486870014,
337.01463343108503,1.7314471397831261,
338.12706695992176,0.6579492358545079,
339.23950048875855,1.6120117391185331,
340.35193401759534,1.4067953134648368,
341.4643675464321,0.9505960019694304,
342.5768010752688,1.4040462511428338,
343.68923460410554,0.8103521184809332,
344.8016681329423,0.22579389884593878,
345.9141016617791,0.4806568370078894,
347.02653519061585,0.11763293214011636,
348.1389687194526,0.35303582526430877,
349.2514022482893,0.7851564970617385,
350.3638357771261,1.5072430110537514,
351.4762693059629,0.35646357556007735,
352.5887028347996,0.7054324999844883,
353.70113636363635,0.9895486205238745,
354.8135698924731,0.26772861762048733,
355.9260034213099,0.14266994682760573,
357.03843695014666,1.018185972751325,
358.1508704789834,0.08425234807719838,
359.2633040078201,2.0512608078670818,
360.37573753665686,0.23005097830663426,
361.48817106549365,0.20761297719988392,
362.60060459433043,0.4759600873968548,
363.71303812316717,0.2999950750005653,
364.8254716520039,0.199086048010267,
365.93790518084063,0.39084613038197225,
367.0503387096774,0.09601789118531952,
368.1627722385142,0.2195178456688868,
369.27520576735094,0.1971690685269706,
370.3876392961877,0.8287755082012196,
371.5000728250244,1.09835101595224,
372.6125063538612,2.562040630210406,
373.724939882698,2.243197792167159,
374.8373734115347,1.408828388230437,
375.94980694037145,2.4027801489128953,
377.0622404692082,3.0625452421462436,
378.17467399804497,3.048278982884437,
379.28710752688175,3.6871340026564132,
380.3995410557185,4.053514269645112,
381.5119745845552,4.139281454938413,
382.62440811339195,4.80100814304677,
383.73684164222874,6.414859960496599,
384.8492751710655,7.359816311569431,
385.96170869990226,7.621370124297573,
387.074142228739,8.804573364256814,
388.1865757575757,8.956844125454898,
389.2990092864125,10.494235687835662,
390.4114428152493,11.120148291747812,
391.52387634408603,11.953806112505104,
392.63630987292277,13.650068254319898,
393.7487434017595,15.07753228686079,
394.8611769305963,17.84040041820792,
395.973610459433,20.438328715804893,
397.0860439882698,22.1244747578745,
398.19847751710654,25.844445786670125,
399.31091104594327,27.164215367898997,
400.42334457478006,31.562305213154303,
401.5357781036168,36.418515391861305,
402.6482116324536,40.5453278586292,
403.7606451612903,45.525021672922804,
404.87307869012704,50.94131746084586,
405.98551221896383,56.457263691790644,
407.09794574780057,63.71457564774934,
408.21037927663735,72.45135415508643,
409.3228128054741,78.94436268487983,
410.4352463343108,87.39863385621052,
411.5476798631476,94.11878862260926,
412.66011339198434,101.53736058593844,
413.7725469208211,110.31371107854768,
414.88498044965786,119.25488624046342,
415.9974139784946,127.62471582569978,
417.1098475073314,135.31896525909082,
418.2222810361681,143.60267849212934,
419.3347145650049,151.42605572180034,
420.44714809384163,156.39580423769186,
421.55958162267837,165.07049692875896,
422.67201515151515,171.27388936408258,
423.7844486803519,174.17999572025084,
424.8968822091887,176.96832581291972,
426.0093157380254,175.23258290733995,
427.12174926686214,167.52064521475899,
428.2341827956989,156.60767922061407,
429.34661632453566,143.31622288255667,
430.45904985337245,127.3795244545335,
431.5714833822092,112.36190383557356,
432.6839169110459,98.57128415226602,
433.7963504398827,86.2870298735065,
434.90878396871943,76.27850842260455,
436.0212174975562,67.3738266049702,
437.13365102639295,61.402796320423704,
438.2460845552297,56.41814453747969,
439.3585180840665,51.02173843083267,
440.4709516129032,47.400869006028756,
441.58338514174,46.33547599950362,
442.6958186705767,44.201945543255995,
443.80825219941346,43.588144680892015,
444.92068572825025,41.303784768073356,
446.033119257087,41.23047129894402,
447.14555278592377,41.93836551014897,
448.2579863147605,40.91568419827072,
449.37041984359723,40.43127356896543,
450.482853372434,41.140927190407815,
451.59528690127075,40.6947186016558,
452.70772043010754,39.25657184526119,
453.8201539589443,39.2247941862916,
454.932587487781,36.67724629432816,
456.0450210166178,37.368970624974274,
457.1574545454545,34.033908962493705,
458.2698880742913,32.6936207030278,
459.38232160312805,30.730161420658227,
460.4947551319648,29.119131673725864,
461.60718866080157,26.455947454335355,
462.7196221896383,23.217723959418787,
463.8320557184751,22.141062993428676,
464.9444892473118,22.18398019709914,
466.05692277614855,18.445331148066636,
467.16935630498534,16.211787536742005,
468.2817898338221,16.358372474902588,
469.39422336265886,14.539943487434662,
470.5066568914956,13.150329049095475,
471.6190904203323,11.347357866328137,
472.7315239491691,11.238057984249055,
473.84395747800585,10.682589494677858,
474.95639100684264,8.9648515455975,
476.06882453567937,8.23166047327502,
477.1812580645161,7.518526012184622,
478.2936915933529,6.653802969839724,
479.4061251221896,5.50625373452981,
480.5185586510264,4.240405827629114,
481.63099217986314,4.490154093217543,
482.7434257086999,4.3030517425172095,
483.85585923753666,4.531507802948612,
484.9682927663734,3.5166088757711695,
486.0807262952102,3.1256631053652613,
487.1931598240469,3.3378302528326644,
488.30559335288365,1.9043190360998379,
489.41802688172044,0.6570957573496674,
490.53046041055717,1.0622866034334735,
491.64289393939396,0.5910021503837378,
492.7553274682307,1.039944754091585,
493.8677609970674,2.1127555258300292,
494.9801945259042,0.41925601033155036,
496.09262805474094,1.0262226783203094,
497.20506158357773,0.8659002311477929,
498.31749511241446,0.32085877401758617,
499.4299286412512,0.7432759458782726,
500.542362170088,0.7597733982898592,
501.6547956989247,0.19755097070611444,
502.7672292277615,0.3194166835580917,
503.87966275659824,1.2014881160593263,
504.99209628543497,0.5916499182210493,
506.10452981427176,0.46531237508678347,
507.2169633431085,1.1708084197161617,
508.3293968719452,0.9583327890241063,
509.441830400782,1.112015027347399,
510.55426392961874,0.39395152269488154,
511.66669745845553,0.025249507758801193,
512.7791309872923,0.5659805510549161,
513.8915645161289,1.0077280693607125,
515.0039980449658,0.8860341028699084,
516.1164315738025,1.1091690760371506,
517.2288651026392,0.5691041247005757,
518.3412986314761,0.7240796504939275,
519.4537321603127,0.592255981806109,
520.5661656891496,0.39082708251838844,
521.6785992179863,0.7320116786692957,
522.791032746823,0.32061814644896164,
523.9034662756599,0.9949113932283498,
525.0158998044965,1.287980825884192,
526.1283333333333,0.43102497669914974,
527.2407668621701,0.647119049725645,
528.3532003910068,1.85598914390587,
529.4656339198436,1.56783867736439,
530.5780674486803,0.6185283193311549,
531.6905009775171,1.1718007110894695,
532.8029345063538,1.1686317981809333,
533.9153680351906,0.2292027204834639,
535.0278015640274,0.7058078840870857,
536.140235092864,0.5091210703462059,
537.2526686217009,0.9968394029347483,
538.3651021505376,1.887008371066977,
539.4775356793743,1.2420300372106428,
540.5899692082112,0.4126280337927819,
541.7024027370478,1.5314892849535844,
542.8148362658847,3.087087507997066,
543.9272697947214,3.8801905450987,
545.0397033235581,3.7512864584928383,
546.152136852395,3.2303061565935254,
547.2645703812316,3.6096973648498314,
548.3770039100684,4.643146058278767,
549.4894374389052,5.989378885314391,
550.6018709677419,7.426819876312757,
551.7143044965787,7.971457983628363,
552.8267380254154,8.125747677367,
553.9391715542522,9.911844221949316,
555.0516050830889,12.448099504809822,
556.1640386119257,13.648759125566006,
557.2764721407625,15.601380205187356,
558.3889056695991,15.49013627805442,
559.501339198436,17.295921020721696,
560.6137727272727,19.272591560219468,
561.7262062561094,22.095034725994047,
562.8386397849463,22.35752118674351,
563.9510733137829,23.912766281906773,
565.0635068426197,25.336948446155276,
566.1759403714565,27.662011849540992,
567.2883739002932,29.356753161881567,
568.40080742913,29.679088997311982,
569.5132409579667,30.395850376588253,
570.6256744868035,31.455786017678044,
571.7381080156403,32.00178389017743,
572.850541544477,32.59078513913649,
573.9629750733138,32.988379504629386,
575.0754086021504,33.70566912136184,
576.1878421309873,36.015103783595364,
577.300275659824,36.162239134024446,
578.4127091886608,37.97481113899691,
579.5251427174976,40.01452525570539,
580.6375762463342,44.63646346539217,
581.7500097751711,47.968360580386864,
582.8624433040078,50.957427434624734,
583.9748768328445,55.34147736867825,
585.0873103616814,60.286136152483046,
586.199743890518,66.2101279635638,
587.3121774193548,72.34953259402499,
588.4246109481916,78.10133547318546,
589.5370444770283,83.5392069109099,
590.6494780058651,90.66280243297773,
591.7619115347018,97.81227620900327,
592.8743450635386,103.88567701644821,
593.9867785923753,109.58003337804213,
595.0992121212121,116.04449137297004,
596.2116456500489,121.65129310857554,
597.3240791788855,126.68326584937195,
598.4365127077224,131.7602151755173,
599.5489462365591,134.79144712670595,
600.6613797653958,136.21204274517456,
601.7738132942327,138.53149149402006,
602.8862468230693,140.6886298746544,
603.9986803519062,141.2332709142127,
605.1111138807429,144.67140164758578,
606.2235474095796,145.30173594213406,
607.3359809384165,145.23710724130964,
608.4484144672531,143.4581325149241,
609.5608479960899,136.24475335065733,
610.6732815249267,129.79714612633774,
611.7857150537634,119.56072032483416,
612.8981485826002,107.79757014786014,
614.0105821114369,95.24112835963386,
615.1230156402737,81.15531759645557,
616.2354491691104,68.53798003070794,
617.3478826979472,59.37963246330074,
618.460316226784,50.49434467894883,
619.5727497556206,41.58205921486438,
620.6851832844575,35.70156265934537,
621.7976168132942,28.91202571482614,
622.910050342131,24.411323635317398,
624.0224838709678,20.72840332035225,
625.1349173998044,17.661055652549248,
626.2473509286413,14.667737999668722,
627.359784457478,12.006811609302977,
628.4722179863147,9.585176911670146,
629.5846515151516,7.73290712595775,
630.6970850439882,6.983113902926608,
631.809518572825,6.118207096258188,
632.9219521016618,4.375735789539064,
634.0343856304985,2.0186292118980105,
635.1468191593353,1.101206531051417,
636.259252688172,1.5979041474292235,
637.3716862170088,0.608949851742834,
638.4841197458455,1.080929285553417,
639.5965532746823,1.090255508148494,
640.7089868035191,1.5629290856175864,
641.8214203323557,0.5041208376628554,
642.9338538611926,0.23042260310453413,
644.0462873900293,0.3331327754076885,
645.158720918866,0.5565638574889067,
646.2711544477029,1.2366929632805634,
647.3835879765395,0.5724673868292799,
648.4960215053763,1.1644646587420744,
649.6084550342131,1.1493870041276808,
650.7208885630498,0.1932507364846498,
651.8333220918867,0.7591776823222385,
652.9457556207233,1.3114072796759695,
654.0581891495601,0.754315925361976,
655.1706226783969,0.7481846685302573,
656.2830562072336,0.2163569989510865,
657.3954897360704,0.5103881847305826,
658.507923264907,0.7541750374189556,
659.6203567937439,0.25618166565672473,
660.7327903225806,0.9342676887608621,
661.8452238514174,0.7242947228838306,
662.9576573802541,1.9007128947660896,
664.0700909090909,0.9484020199505796,
665.1825244379277,1.117599987023618,
666.2949579667644,1.223206905276954,
667.4073914956011,1.5741910534591383,
668.5198250244379,1.4299003003763782,
669.6322585532747,1.1784053931810616,
670.7446920821114,1.0984265800453903,
671.8571256109482,1.364186883323064,
672.9695591397849,1.59754035565282,
674.0819926686216,1.6527866349767093,
675.1944261974585,1.8907056036033152,
676.3068597262952,1.1097521251080278,
677.419293255132,0.12886103715964659,
678.5317267839687,0.6361343495054516,
679.6441603128054,0.7947972271231313,
680.7565938416423,0.9870019274885506,
681.869027370479,1.5473939676608484,
682.9814608993157,1.6704204817695414,
684.0938944281525,1.5217589420077506,
685.2063279569892,2.0761719039618614,
686.318761485826,1.038182533976157,
687.4311950146628,1.670328061471661,
688.5436285434995,1.1375656748012601,
689.6560620723362,0.16117745696380814,
690.768495601173,0.14357613526475327,
691.8809291300098,0.817005181132054,
692.9933626588465,1.3840030336680735,
694.1057961876833,1.763213217954047,
695.21822971652,1.6373662143487562,
696.3306632453567,0.3833561587626172,
697.4430967741936,0.22443519039685095,
698.5555303030303,0.04315261670654892,
699.667963831867,0.03480539257605013,
700.7803973607038,0.8587385982167737,
701.8928308895405,0.4730973494514251,
703.0052644183774,0.8637318757040666,
704.1176979472141,0.11263153898261596,
705.2301314760508,0.34574262271610134,
706.3425650048875,0.4866958898940297,
707.4549985337243,0.18529732882715833,
708.5674320625611,0.09868705724751811,
709.6798655913979,0.5767627537119219,
710.7922991202346,0.6294035964786412,
711.9047326490713,0.15723984626118714,
713.017166177908,0.509810537904685,
714.1295997067449,0.9371384450896292,
715.2420332355816,0.9327341190320341,
716.3544667644184,0.41786313663038355,
717.4669002932551,0.8963259562160915,
718.5793338220918,1.1558022575960571,
719.6917673509287,0.23242856843492388,
720.8042008797654,0.0997908190979162,
721.9166344086021,1.0085237252812236,
723.0290679374389,0.3457298429555217,
724.1415014662756,0.46473743584184923,
725.2539349951124,0.05396800978501945,
726.3663685239492,0.7348902719478639,
727.4788020527859,0.7262310372435864,
728.5912355816226,0.5319261742058977,
729.7036691104594,0.23375886401154,
730.8161026392962,0.9758918888678285,
731.928536168133,1.0244547463686837,
733.0409696969697,1.3313657309624096,
734.1534032258064,0.2819430381584417,
735.2658367546431,1.1515115771212558,
736.37827028348,1.3859651681596998,
737.4907038123167,1.8652497864608795,
738.6031373411535,2.082711328168783,
739.7155708699902,1.9025164132211212,
740.8280043988269,2.479014290666813,
741.9404379276638,3.4327724352808358,
743.0528714565005,3.6156868412141776,
744.1653049853372,3.8674659091712194,
745.277738514174,4.601635307233991,
746.3901720430107,3.9901630255647076,
747.5026055718475,3.8047351455417755,
748.6150391006843,4.276445967574061,
749.727472629521,5.788095157386248,
750.8399061583577,7.029333426843455,
751.9523396871945,6.932135924688127,
753.0647732160313,8.718109241000887,
754.177206744868,8.03094234169331,
755.2896402737048,7.807701909277451,
756.4020738025415,7.923112064519959,
757.5145073313782,9.031301197541206,
758.6269408602151,8.985219636991449,
759.7393743890518,13.274465942101674,
760.8518079178886,10.947654667671431,
761.9642414467253,13.89347969034542,
763.076674975562,13.657700853140218,
764.1891085043989,11.618724204765149,
765.3015420332356,12.09879133804067,
766.4139755620723,11.897014707421114,
767.526409090909,11.31078333201336,
768.6388426197458,11.458101431616573,
769.7512761485826,12.272163141532365,
770.8637096774194,13.490958046717655,
771.9761432062561,14.12813757713433,
773.0885767350928,13.73094020392619,
774.2010102639296,13.069810545031219,
775.3134437927664,13.738404592148703,
776.4258773216031,15.131700587144909,
777.5383108504399,14.531792407404483,
778.6507443792766,13.631490083094022,
779.7631779081133,14.816510334565887,
780.8756114369502,15.436344936668151,
781.9880449657869,14.736831227683227,
783.1004784946236,16.811493526556198,
784.2129120234604,15.073913233507406,
785.3253455522971,15.0474898506919,
786.437779081134,16.133496708666247,
787.5502126099707,14.548269035895629,
788.6626461388074,14.812249785734965,
789.7750796676441,15.213494039069861,
790.8875131964809,15.174940743320523,
791.9999467253177,16.804560937439348,
793.1123802541545,16.84176691395964,
794.2248137829912,16.19336960721088,
795.3372473118279,16.549950140358142,
796.4496808406647,17.000874456306033,
797.5621143695015,16.513656227049484,
798.6745478983382,15.766940376843877,
799.786981427175,15.838289235054845,
800.8994149560117,16.146256806207127,
802.0118484848484,16.198183946370996,
803.1242820136853,15.483060662160813,
804.236715542522,15.226614265630376,
805.3491490713587,14.660918576243656,
806.4615826001955,13.91673123220268,
807.5740161290322,14.91414401509518,
808.686449657869,15.720796822311042,
809.7988831867058,14.811345500400133,
810.9113167155425,14.956022197448691,
812.0237502443792,15.24115783512817,
813.136183773216,13.072928331004658,
814.2486173020528,12.393173063795302,
815.3610508308896,12.055036120785562,
816.4734843597263,11.42627002293039,
817.585917888563,11.649674492752554,
818.6983514173997,11.618134828072801,
819.8107849462366,10.375046143730474,
820.9232184750733,10.011879195031087,
822.0356520039101,9.528600485543384,
823.1480855327468,8.442774955805074,
824.2605190615835,8.944032819425788,
825.3729525904204,7.930959894262465,
826.4853861192571,7.981870775029958,
827.5978196480938,7.476968989271643,
828.7102531769306,7.910498691558592,
829.8226867057673,5.886523172306078,
830.9351202346041,6.896930340937548,
832.0475537634409,6.667882995644039,
833.1599872922776,5.5371295553734425,
834.2724208211143,6.069402206316938,
835.3848543499511,5.513408098051764,
836.4972878787879,5.121431067545393,
837.6097214076246,4.495822085175369,
838.7221549364614,4.010602218446592,
839.8345884652981,3.769042255848343,
840.9470219941348,2.4088818257041966,
842.0594555229717,3.0813020707989516,
843.1718890518084,3.981498968334206,
844.2843225806452,2.7509441962710834,
845.3967561094819,2.8833528317496353,
846.5091896383186,3.2321682230679722,
847.6216231671555,3.076825298122645,
848.7340566959922,3.11799321726732,
849.8464902248289,3.395099085241034,
850.9589237536657,3.1647491236105934,
852.0713572825024,2.746751131267308,
853.1837908113392,2.8454437710929086,
854.296224340176,3.0368335271603186,
855.4086578690127,3.801589148828474,
856.5210913978494,4.347090494958248,
857.6335249266862,3.7767120499318523,
858.745958455523,3.437513122258359,
859.8583919843597,3.0728615179709236,
860.9708255131965,4.265535307711626,
862.0832590420332,5.470436129285712,
863.1956925708699,4.485731014125067,
864.3081260997067,3.898380379269748,
865.4205596285435,4.25990123463878,
866.5329931573802,4.973129289131337,
867.645426686217,5.810829452597705,
868.7578602150537,6.378509084591836,
869.8702937438904,5.476838351000016,
870.9827272727273,5.59092433107056,
872.095160801564,6.490752215517685,
873.2075943304008,5.8959258223157045,
874.3200278592375,4.843502018120843,
875.4324613880742,5.416671416016743,
876.5448949169111,5.680608644223513,
877.6573284457478,5.5160389194111055,
878.7697619745845,5.325933731515684,
879.8821955034213,4.8469515927888045,
880.994629032258,4.944837437260403,
882.1070625610948,4.383365518119134,
883.2194960899316,4.197206574792427,
884.3319296187683,4.376830885579399,
885.444363147605,4.594905777640709,
886.5567966764418,4.394264720549763,
887.6692302052786,3.608949335815462,
888.7816637341153,3.798919410289133,
889.8940972629521,3.5981760055693344,
891.0065307917888,3.1661425560460645,
892.1189643206255,2.048157836227456,
893.2313978494624,2.439611477681651,
894.3438313782991,2.685582549241116,
895.4562649071358,4.371611130899354,
896.5686984359726,3.083244796196567,
897.6811319648093,2.39581006475156,
898.7935654936462,1.9437253115965847,
899.9059990224829,1.4943874444091583,
901.0184325513196,0.8432336855618878,
902.1308660801564,1.9200285335693552,
903.2432996089931,2.2740540151088684,
904.3557331378299,1.140477193182905,
905.4681666666667,0.817411094033046,
906.5806001955034,0.3012701114602684,
907.6930337243401,0.8178080934474389,
908.8054672531769,0.8651803307937528,
909.9179007820137,0.20307350257490542,
911.0303343108504,0.1390568398839706,
912.1427678396872,0.6225302432164022,
913.2552013685239,1.2303965770112617,
914.3676348973606,0.27101165445780895,
915.4800684261975,0.5398704434624831,
916.5925019550342,1.496199569100893,
917.7049354838709,1.887961341626418,
918.8173690127077,1.5789589006258031,
919.9298025415444,1.7063508765434712,
921.0422360703813,1.5295380090768607,
922.154669599218,2.6946242941166676,
923.2671031280547,2.6256502206524437,
924.3795366568914,2.251772016323378,
925.4919701857282,2.8963512271079477,
926.604403714565,3.114617902106785,
927.7168372434018,1.8818780511642372,
928.8292707722385,1.3626450580411182,
929.9417043010752,1.4694547116401562,
931.054137829912,0.5345601110556883,
932.1665713587488,0.9965711040091182,
933.2790048875855,1.1953012702929127,
934.3914384164223,0.3236592875451676,
935.503871945259,0.059147112160666655,
936.6163054740957,0.0790223498175128,
937.7287390029326,0.972301096967611,
938.8411725317693,3.454465091917185,
939.953606060606,5.182489968364382,
941.0660395894428,6.165924030011498,
942.1784731182795,7.6586931725670775,
943.2909066471163,10.907324250435497,
944.4033401759531,14.557939719245208,
945.5157737047898,17.393579228882682,
946.6282072336265,21.99433821146365,
947.7406407624633,27.04822482783912,
948.8530742913001,33.03875657048473,
949.9655078201368,39.89305988017131,
951.0779413489736,47.98924929217873,
952.1903748778103,57.34810271215022,
953.302808406647,68.52218413254677,
954.4152419354839,81.0164900325192,
955.5276754643206,95.81553181737074,
956.6401089931574,111.57047748535315,
957.7525425219941,131.40466792083146,
958.8649760508308,154.7269985231999,
959.9774095796677,181.07313751674698,
961.0898431085044,210.91302222201335,
962.2022766373411,245.6728965293578,
963.3147101661779,284.21690106638596,
964.4271436950146,325.6266134910714,
965.5395772238514,370.922022076053,
966.6520107526882,422.5446828927225,
967.7644442815249,479.12518603889924,
968.8768778103616,533.9104171750186,
969.9893113391984,589.2808860995899,
971.1017448680352,643.8541547386486,
972.214178396872,705.1954594603112,
973.3266119257087,762.3234110655491,
974.4390454545454,821.0580877524428,
975.5514789833821,870.983246992601,
976.663912512219,908.9660827383993,
977.7763460410557,930.6385833510652,
978.8887795698924,934.2504099887808,
980.0012130987292,904.3501101371435,
981.1136466275659,842.990720163561,
982.2260801564028,753.2155877719304,
983.3385136852395,641.2014618020927,
984.4509472140762,523.0863609318784,
985.563380742913,417.48369397991405,
986.6758142717497,323.3685873008824,
987.7882478005865,252.9459095344098,
988.9006813294233,200.5248812837201,
990.01311485826,162.8588696307416,
991.1255483870967,134.00821685970766,
992.2379819159335,111.22047008666036,
993.3504154447703,94.63066887726636,
994.462848973607,83.19631372735114,
995.5752825024438,73.33663644035964,
996.6877160312805,65.24213423953083,
997.8001495601172,59.04560651961969,
998.9125830889541,52.71037805064181,
1000.0250166177908,50.701164166210255,
1001.1374501466275,47.73719167946364,
1002.2498836754643,45.805863999221366,
1003.362317204301,43.65855971166294,
1004.4747507331379,41.57951850944863,
1005.5871842619746,40.58059388609693,
1006.6996177908113,41.0244490260928,
1007.812051319648,39.832931529672294,
1008.9244848484848,40.86633214568029,
1010.0369183773216,42.507902410918206,
1011.1493519061584,41.69873651853837,
1012.2617854349951,41.16849395015269,
1013.3742189638318,43.4944672640854,
1014.4866524926686,45.563680203209955,
1015.5990860215054,46.39080650426098,
1016.7115195503421,48.19856846520688,
1017.8239530791789,49.27698134460208,
1018.9363866080156,50.708997517714884,
1020.0488201368523,53.427612778906614,
1021.1612536656892,54.68180640397415,
1022.2736871945259,56.182568356919546,
1023.3861207233626,58.50141488755507,
1024.4985542521995,60.6965879467274,
1025.610987781036,64.1949815114477,
1026.723421309873,67.53699302679458,
1027.8358548387096,68.55865248494172,
1028.9482883675464,70.75803705187329,
1030.0607218963833,72.22668147047361,
1031.1731554252199,71.72218720714032,
1032.2855889540567,72.9332147715815,
1033.3980224828933,72.6499361128619,
1034.5104560117302,70.14016556056163,
1035.622889540567,69.1992209175682,
1036.7353230694036,66.2088319941754,
1037.8477565982405,61.00922762736584,
1038.960190127077,55.42166898133441,
1040.072623655914,51.31068938740888,
1041.1850571847508,45.694463639983766,
1042.2974907135874,40.177193843969945,
1043.4099242424243,35.30647519992403,
1044.5223577712609,28.54016491683101,
1045.6347913000977,24.501187519560588,
1046.7472248289346,20.711060733238718,
1047.8596583577712,17.365661681319683,
1048.972091886608,14.760038357243959,
1050.0845254154447,12.554384842816583,
1051.1969589442815,11.002578909967186,
1052.3093924731184,9.759453829786283,
1053.421826001955,11.293975630762139,
1054.5342595307918,13.491836644141273,
1055.6466930596284,14.409510939389367,
1056.7591265884653,19.7497801115932,
1057.8715601173021,21.650110035897136,
1058.9839936461387,26.308246017094064,
1060.0964271749756,30.209781563297533,
1061.2088607038122,35.19034919059757,
1062.321294232649,40.630269633643316,
1063.433727761486,45.58572855485711,
1064.5461612903225,51.8764208720388,
1065.6585948191594,57.38367593681422,
1066.771028347996,59.806411699179485,
1067.8834618768328,66.88421348848973,
1068.9958954056697,73.12281268971329,
1070.1083289345063,68.56790981731393,
1071.2207624633431,64.36748723490086,
1072.3331959921798,58.13920592536673,
1073.4456295210166,51.04497572662791,
1074.5580630498534,43.32012860834548,
1075.67049657869,36.71967347639243,
1076.782930107527,29.58758524260456,
1077.8953636363635,22.95606253489272,
1079.0077971652004,18.370496015117336,
1080.1202306940372,14.382492786734671,
1081.2326642228738,10.772560304662864,
1082.3450977517107,8.134655297506058,
1083.4575312805473,5.353759440665172,
1084.5699648093841,3.799111756878066,
1085.682398338221,2.9149506433512817,
1086.7948318670576,0.14219755128337286,
1087.9072653958945,0.9553697102055388,
1089.019698924731,0.10953656868913335,
1090.132132453568,0.8928657647388453,
1091.2445659824048,1.2901722789451189,
1092.3569995112414,1.5960542944630147,
1093.4694330400782,1.2583077704862853,
1094.5818665689148,1.7803720531692893,
1095.6943000977517,1.54165946118366,
1096.8067336265885,1.8107689331993062,
1097.9191671554252,2.908430513975234,
1099.031600684262,3.3273204012880164,
1100.1440342130986,2.9123482008586787,
1101.2564677419355,2.2159477943715715,
1102.3689012707723,3.3205271339847338,
1103.481334799609,3.189492246675017,
1104.5937683284458,2.2909423193383525,
1105.7062018572824,0.7012136112787822,
1106.8186353861192,0.18603254364459182,
1107.931068914956,0.5392668871059447,
1109.0435024437927,0.7805517925392326,
1110.1559359726295,1.8875632128410953,
1111.2683695014662,3.6173806757095863,
1112.380803030303,2.906932742832014,
1113.4932365591399,4.1324297733012285,
1114.6056700879765,6.32650710900011,
1115.7181036168133,8.159191208398036,
1116.83053714565,9.23100001887542,
1117.9429706744868,8.504454615361224,
1119.0554042033236,9.798249871901923,
1120.1678377321603,11.654269854609383,
1121.280271260997,12.069914987010378,
1122.3927047898337,11.692473612676089,
1123.5051383186706,12.926679064159226,
1124.6175718475074,11.974061643017995,
1125.730005376344,11.665600986592603,
1126.8424389051809,10.972250839610133,
1127.9548724340175,10.726563962686125,
1129.0673059628543,9.370269049027586,
1130.1797394916912,7.7698183376104915,
1131.2921730205278,8.09367341001589,
1132.4046065493646,6.108240883708859,
1133.5170400782013,5.772083364030982,
1134.629473607038,5.406626655586551,
1135.741907135875,3.839708760070178,
1136.8543406647116,3.6791553159347545,
1137.9667741935484,2.7151972717173263,
1139.079207722385,1.36506867595106,
1140.1916412512219,1.4625101000434169,
1141.3040747800587,0.8872047194768741,
1142.4165083088953,1.5737486588464826,
1143.528941837732,1.7889562611401109,
1144.6413753665688,1.779473845085805,
1145.7538088954057,1.3550451790870084,
1146.8662424242425,0.9207179377593419,
1147.9786759530791,2.006087470357945,
1149.0911094819157,2.2934253321386744,
1150.2035430107526,2.9709457277584432,
1151.3159765395894,2.1868558203843573,
1152.4284100684263,1.4374708033233599,
1153.540843597263,1.896516296677467,
1154.6532771260995,2.539415604385539,
1155.7657106549364,1.9423678437309637,
1156.8781441837732,2.695615097727315,
1157.99057771261,2.4521081094395236,
1159.1030112414467,3.2740957190966955,
1160.2154447702833,2.1472832282644894,
1161.3278782991201,1.9360242527409086,
1162.440311827957,2.7393132546360786,
1163.5527453567938,2.7349120885219254,
1164.6651788856304,1.7839133194290822,
1165.777612414467,2.9593451432990423,
1166.890045943304,3.3139373191694883,
1168.0024794721407,3.567967245753278,
1169.1149130009776,2.9201522195803253,
1170.2273465298142,3.872141640614709,
1171.3397800586508,3.661217464456556,
1172.4522135874877,3.7829258761513542,
1173.5646471163245,4.559796845333277,
1174.6770806451614,4.800865679623186,
1175.7895141739982,3.3936225161898466,
1176.9019477028346,4.392849395619422,
1178.0143812316715,5.055269965989713,
1179.1268147605083,4.664749145222121,
1180.2392482893451,5.357034258184265,
1181.351681818182,5.9646312102979335,
1182.4641153470184,5.79932080509967,
1183.5765488758552,5.6872589344840705,
1184.688982404692,6.198426332558686,
1185.801415933529,6.3359462476707895,
1186.9138494623658,6.022602972528346,
1188.0262829912022,6.571913851382846,
1189.138716520039,6.016342411058212,
1190.2511500488758,6.5834398684387505,
1191.3635835777127,6.704011206656786,
1192.4760171065495,6.1303522677910065,
1193.588450635386,6.426665577959973,
1194.7008841642228,6.365354871244587,
1195.8133176930596,5.706675349464267,
1196.9257512218965,7.167318677255111,
1198.0381847507333,6.790112524518891,
1199.1506182795697,5.847873397326497,
1200.2630518084065,5.546705152932705,
1201.3754853372434,5.5976359837431815,
1202.4879188660802,4.662346780987518,
1203.600352394917,4.442862679961387,
1204.7127859237535,4.101506807826802,
1205.8252194525903,3.6300668690724973,
1206.9376529814272,4.126389555645451,
1208.050086510264,3.840722321217735,
1209.1625200391009,4.235650827857679,
1210.2749535679372,3.3357034007619535,
1211.387387096774,2.7829014039270783,
1212.499820625611,2.630421559153974,
1213.6122541544478,3.731793456605924,
1214.7246876832846,2.7246091070684497,
1215.837121212121,2.540121716920775,
1216.9495547409579,2.493262978823155,
1218.0619882697947,2.5763544791496784,
1219.1744217986316,2.2784751594499855,
1220.2868553274684,2.192812844552388,
1221.3992888563048,1.2377857170085849,
1222.5117223851416,1.8962427791014171,
1223.6241559139785,2.2197457544504826,
1224.7365894428153,2.270701576617437,
1225.8490229716522,2.272768731930004,
1226.9614565004886,2.0797033565323604,
1228.0738900293254,1.8926038699902643,
1229.1863235581623,1.692975694706343,
1230.298757086999,2.3176504997748832,
1231.411190615836,2.4921869530304654,
1232.5236241446723,1.3165735969837866,
1233.6360576735092,0.8998236159086925,
1234.748491202346,1.896547763020022,
1235.8609247311829,1.7819401714184047,
1236.9733582600197,1.6657430232697163,
1238.085791788856,1.3692720563876684,
1239.198225317693,1.517425978520962,
1240.3106588465298,1.5195877266129705,
1241.4230923753667,1.5438315190128675,
1242.5355259042035,0.8889124083303399,
1243.64795943304,0.7118851614312897,
1244.7603929618767,0.2756984327790495,
1245.8728264907136,1.3681965722470726,
1246.9852600195504,0.621849943567627,
1248.0976935483873,1.064066855039537,
1249.2101270772237,0.7640523533815959,
1250.3225606060605,0.8525176262730938,
1251.4349941348974,0.8773251827916766,
1252.5474276637342,0.1733272169174839,
1253.659861192571,0.3193937928113679,
1254.7722947214074,0.9900652900277067,
1255.8847282502443,0.6007297661726146,
1256.9971617790811,1.2527766389491302,
1258.109595307918,1.3509125994877045,
1259.2220288367548,0.5661623377756306,
1260.3344623655912,0.9091287855707857,
1261.446895894428,0.9046521628842179,
1262.559329423265,0.2188119501263463,
1263.6717629521017,0.6025733302070945,
1264.7841964809386,1.3011965283216165,
1265.896630009775,0.5060315884877705,
1267.0090635386118,0.2530557174112879,
1268.1214970674487,1.3441117021849944,
1269.2339305962855,0.021958556359956007,
1270.3463641251224,0.11281268537636428,
1271.4587976539588,0.12633092970386,
1272.5712311827956,0.5274302423369918,
1273.6836647116324,0.39512271086741524,
1274.7960982404693,0.10029744519983008,
1275.9085317693061,0.11612962101033791,
1277.0209652981425,0.48270987797865744,
1278.1333988269794,0.1556308790004447,
1279.2458323558162,0.49621955587866745,
1280.358265884653,0.9124200262752987,
1281.47069941349,0.09637728917859426,
1282.5831329423263,0.012408018280778442,
1283.6955664711631,0.026553683442552316,
1284.808,0.3114289481328526,
