146.7885,0.03308843228387857,
151.25132156862745,0.009160428660187455,
155.7141431372549,0.01348586340755822,
160.17696470588234,0.0017952808840432447,
164.6397862745098,0.07050457452296846,
169.10260784313726,0.21712348086739824,
173.5654294117647,0.365683798387166,
178.02825098039216,0.49694034712862506,
182.4910725490196,0.6851377974319407,
186.95389411764705,1.0,
191.4167156862745,0.977479339747386,
195.87953725490195,0.522262061672809,
200.34235882352942,0.25406698150294205,
204.80518039215684,0.1548681834371413,
209.26800196078432,0.096489678052413,
213.73082352941177,0.052775035392032675,
218.1936450980392,0.021636897925125784,
222.65646666666666,0.0032316544213095736,
227.1192882352941,0.005677451635305629,
231.58210980392158,0.020263131161731184,
236.044931372549,0.04338985270554469,
240.50775294117648,0.07757413083418681,
244.97057450980392,0.10889771236342975,
249.43339607843137,0.1514365670563688,
253.89621764705882,0.17411156636772726,
258.35903921568627,0.15715976625152014,
262.8218607843137,0.14494592650109636,
267.28468235294116,0.1473984044774823,
271.74750392156864,0.17860312703752712,
276.21032549019606,0.21256377248523206,
280.67314705882353,0.2527872037994977,
285.135968627451,0.29707576774167366,
289.5987901960784,0.33011171394469796,
294.06161176470584,0.3534246916049749,
298.5244333333333,0.3552651937453727,
302.9872549019608,0.31807738000404,
307.4500764705882,0.22971719435822882,
311.9128980392157,0.13926538677070902,
316.37571960784317,0.07614246194497945,
320.8385411764706,0.03473595352295152,
325.301362745098,0.0017619500949659847,
329.7641843137255,0.009115540844955732,
334.22700588235296,0.011717446514596047,
338.6898274509804,0.007002448089693521,
343.15264901960785,0.002340806683336223,
347.6154705882353,0.017680082491506748,
352.07829215686274,0.03508871833104115,
356.54111372549016,0.057001872353781284,
361.00393529411764,0.06884355958298734,
365.4667568627451,0.07598211679959246,
369.92957843137253,0.09295493755794906,
374.39239999999995,0.06736946251401779,
378.8552215686274,0.04547238745580098,
383.3180431372549,0.06866283999838531,
387.7808647058823,0.11285351694422019,
392.2436862745098,0.16846648077018467,
396.7065078431373,0.23133312152474225,
401.1693294117647,0.29416943413835844,
405.63215098039217,0.32757385827168883,
410.0949725490196,0.2898889753115329,
414.55779411764706,0.20112195631391527,
419.0206156862745,0.12580451727784592,
423.48343725490196,0.08022833634336471,
427.9462588235294,0.055046209841902505,
432.40908039215685,0.04214350134124773,
436.8719019607843,0.04256458274277294,
441.33472352941175,0.05198534229008642,
445.7975450980392,0.07528585169992046,
450.26036666666664,0.13544679101225593,
454.7231882352941,0.23126875969259605,
459.18600980392154,0.34287804104157604,
463.648831372549,0.45535791946729665,
468.11165294117643,0.5820506499335407,
472.5744745098039,0.620791716389852,
477.0372960784314,0.4475992076485194,
481.5001176470588,0.24553285676448672,
485.9629392156863,0.12678823671765801,
490.4257607843137,0.059202184709636875,
494.88858235294117,0.022807353779199426,
499.3514039215686,0.0024794395127706,
503.81422549019607,0.003986682179249206,
508.27704705882354,0.006059561142722489,
512.739868627451,0.004557590955815898,
517.2026901960785,0.0002484918372962319,
521.6655117647058,0.005291096083419936,
526.1283333333333,0.018705235221172498,
530.5911549019607,0.03159611487575996,
535.0539764705882,0.0528099860540038,
539.5167980392157,0.0798006818171275,
543.9796196078431,0.10796030280776672,
548.4424411764705,0.1405814310184816,
552.9052627450981,0.1680880136982735,
557.3680843137255,0.17606294709046597,
561.8309058823529,0.15976599869293298,
566.2937274509804,0.12675863492690176,
570.7565490196077,0.08968116241187504,
575.2193705882353,0.06395064192208483,
579.6821921568628,0.044054477580546925,
584.1450137254901,0.029784366517502665,
588.6078352941176,0.018353059927308044,
593.0706568627451,0.015191054561831587,
597.5334784313725,0.009171167727020004,
601.9963,0.006558915242560764,
606.4591215686274,0.0031111139734796424,
610.9219431372549,0.0011857213706451756,
615.3847647058824,0.0011302268651269226,
619.8475862745098,0.0008262983417969972,
624.3104078431372,0.0017678321234565297,
628.7732294117648,0.0007530323743912757,
633.2360509803921,0.0018412320229582919,
637.6988725490196,0.00032542123745775095,
642.161694117647,0.0015801867216457537,
646.6245156862744,0.0024389326521139184,
651.087337254902,0.0037266904590859116,
655.5501588235294,0.006062022862131265,
660.0129803921568,0.007581954188770017,
664.4758019607843,0.012066028430595795,
668.9386235294118,0.009891450811535316,
673.4014450980392,0.012467076607861047,
677.8642666666666,0.012804301287666785,
682.3270882352941,0.015052237324245205,
686.7899098039215,0.017284303034353302,
691.252731372549,0.025126300826922236,
695.7155529411765,0.034296741389604805,
700.1783745098039,0.06280120122624258,
704.6411960784313,0.10186384528827018,
709.1040176470588,0.15388101425607265,
713.5668392156863,0.20428383013526458,
718.0296607843137,0.24710328667956502,
722.4924823529411,0.2534575650508783,
726.9553039215687,0.20966866904921858,
731.4181254901961,0.15026688394627905,
735.8809470588235,0.09670199694929445,
740.3437686274509,0.055407466828771935,
744.8065901960784,0.02592129089041274,
749.2694117647059,0.01005021939559504,
753.7322333333333,0.0025609649743444087,
758.1950549019608,0.004118679091776868,
762.6578764705882,0.008122506052080727,
767.1206980392157,0.003384512150702934,
771.5835196078431,0.006009178754644418,
776.0463411764706,0.019190906019018357,
780.509162745098,0.04116220410620103,
784.9719843137254,0.060606222450416185,
789.4348058823529,0.07461457101214945,
793.8976274509804,0.09203584719995436,
798.3604490196078,0.10684983768774295,
802.8232705882352,0.11930510177654716,
807.2860921568628,0.13372199276566127,
811.7489137254902,0.14774223840930345,
816.2117352941176,0.16836281970194875,
820.674556862745,0.1936177902017744,
825.1373784313726,0.22158951906817115,
829.6002,0.24858853193460229,
834.0630215686274,0.2771016920988779,
838.5258431372549,0.3229076961560745,
842.9886647058823,0.3648298306538681,
847.4514862745098,0.4039449375020785,
851.9143078431372,0.42995156120499617,
856.3771294117647,0.43777432102331004,
860.8399509803921,0.413662415364144,
865.3027725490196,0.361034845915422,
869.7655941176471,0.294768754246878,
874.2284156862745,0.2313446845489429,
878.6912372549019,0.17471126345452365,
883.1540588235293,0.12908239702462318,
887.6168803921569,0.10088019895439336,
892.0797019607843,0.07371890649945428,
896.5425235294117,0.05485644342188042,
901.0053450980392,0.030286571669855253,
905.4681666666667,0.014343337060137587,
909.9309882352941,0.005358477761892242,
914.3938098039215,0.0009385259440596314,
918.856631372549,0.0025055379382565982,
923.3194529411765,0.004396219282223812,
927.7822745098039,0.003218957113835345,
932.2450960784314,0.003669411205595902,
936.7079176470588,0.0013525423206991335,
941.1707392156862,0.0005074471997536879,
945.6335607843137,0.000714536812042234,
950.0963823529412,0.0030527976589711115,
954.5592039215686,0.002920971837931066,
959.022025490196,0.00336064371975963,
963.4848470588234,0.0056285191466385505,
967.947668627451,0.009002416017251099,
972.4104901960784,0.011113943183347375,
976.8733117647058,0.01070899310311455,
981.3361333333334,0.01074832996535058,
985.7989549019608,0.012680227166503872,
990.2617764705882,0.011645968879571079,
994.7245980392156,0.011455213694865468,
999.1874196078431,0.01323783171212177,
1003.6502411764706,0.013481676396497052,
1008.113062745098,0.009311747281394663,
1012.5758843137255,0.010405940799998263,
1017.0387058823529,0.008062107524986378,
1021.5015274509803,0.007455354781629798,
1025.9643490196077,0.00683169008792067,
1030.4271705882352,0.007796133907952515,
1034.8899921568627,0.003937687646996633,
1039.3528137254903,0.005986417373869723,
1043.8156352941178,0.005504887491940584,
1048.278456862745,0.005882319789361045,
1052.7412784313724,0.005637519753402088,
1057.2041,0.007022750244586989,
1061.6669215686275,0.005345366881172968,
1066.129743137255,0.007035687869630586,
1070.5925647058823,0.00807329641365854,
1075.0553862745096,0.009948966990957816,
1079.5182078431371,0.0077411238463219924,
1083.9810294117647,0.009089562785154116,
1088.4438509803922,0.008558308015462738,
1092.9066725490197,0.01073397598203919,
1097.369494117647,0.007660083066839414,
1101.8323156862743,0.00808005327416069,
1106.2951372549019,0.004931341972055722,
1110.7579588235294,0.004536497772433396,
1115.220780392157,0.005108682270164125,
1119.6836019607842,0.000113990871909796,
1124.1464235294118,0.002625812092341851,
1128.609245098039,0.002538635272586272,
1133.0720666666666,0.0004508742556790345,
1137.5348882352941,0.0003987862194897376,
1141.9977098039217,0.00027446697610344786,
1146.460531372549,0.000929376066182038,
1150.9233529411763,0.0006900589370788256,
1155.3861745098038,0.0030950093003373025,
1159.8489960784314,0.002068060213981364,
1164.311817647059,0.002343122119980099,
1168.7746392156862,0.000502725227694361,
1173.2374607843135,0.002212011669587421,
1177.700282352941,0.002038302170750346,
1182.1631039215686,0.004138940736219734,
1186.625925490196,0.0016229055425721864,
1191.0887470588236,0.002938793735006823,
1195.5515686274512,0.0027692014487206078,
1200.0143901960782,0.0027886979794715227,
1204.4772117647058,0.002991646803168196,
1208.9400333333333,0.0038897994274448514,
1213.4028549019608,0.006040992591343263,
1217.8656764705884,0.005522413076392853,
1222.3284980392154,0.006325655555200283,
1226.791319607843,0.00523868529802454,
1231.2541411764705,0.005329723915417879,
1235.716962745098,0.0034484151436371567,
1240.1797843137256,0.002470283199901799,
1244.642605882353,0.004310219416020798,
1249.1054274509802,0.0014217429339630008,
1253.5682490196077,0.004231581449695132,
1258.0310705882353,0.0033088806120276423,
1262.4938921568628,0.003583630324820389,
1266.9567137254903,0.001260762986087135,
1271.4195352941174,0.002868068433285112,
1275.882356862745,0.0019359613607026584,
1280.3451784313725,0.0017303031440535,
1284.808,0.0,
