133.1663, 573.8558
135.0947, 667.3085
137.0232, 730.4315
138.9517, 735.6195
140.8801, 691.6572
142.8086, 717.7448
144.7371, 838.8934
146.6655, 954.7161
148.5940, 1063.831
150.5225, 1060.738
152.4509, 1003.369
154.3794, 919.3545
156.3079, 858.6522
158.2363, 820.4371
160.1648, 788.3983
162.0933, 760.1687
164.0217, 737.0223
165.9502, 718.6770
167.8787, 704.4851
169.8071, 696.0128
171.7356, 693.3254
173.6641, 684.7281
175.5925, 666.1575
177.5210, 654.7455
179.4495, 657.6919
181.3779, 665.5396
183.3064, 672.2391
185.2349, 678.6699
187.1633, 688.0643
189.0918, 700.0251
191.0203, 715.9138
192.9487, 739.6900
194.8772, 760.1060
196.8057, 765.1547
198.7341, 770.0107
200.6626, 793.9042
202.5911, 836.3702
204.5195, 870.9516
206.4480, 897.4633
208.3765, 917.8656
210.3049, 923.6412
212.2334, 934.9138
214.1619, 966.2397
216.0903, 1008.924
218.0188, 1046.969
219.9473, 1080.677
221.8757, 1103.922
223.8042, 1118.689
225.7327, 1117.741
227.6611, 1090.690
229.5896, 1054.246
231.5181, 1020.147
233.4465, 986.2145
235.3750, 940.0581
237.3035, 880.0940
239.2319, 828.7806
241.1604, 791.5015
243.0889, 759.5283
245.0173, 728.7752
246.9458, 701.4519
248.8743, 680.4265
250.8027, 665.2505
252.7312, 652.1951
254.6597, 641.3441
256.5881, 631.4830
258.5166, 620.3248
260.4451, 613.6462
262.3735, 617.4345
264.3020, 624.0000
266.2305, 622.6109
268.1589, 614.6515
270.0874, 612.6609
272.0159, 617.1723
273.9443, 624.3157
275.8728, 633.2056
277.8013, 644.6609
279.7297, 656.9010
281.6582, 673.1623
283.5867, 699.7421
285.5151, 735.1700
287.4436, 766.6501
289.3721, 792.4023
291.3005, 824.0176
293.2290, 863.3353
295.1575, 910.8749
297.0859, 972.1447
299.0144, 1037.553
300.9429, 1097.556
302.8713, 1151.839
304.7998, 1202.222
306.7283, 1250.084
308.6567, 1283.855
310.5852, 1306.221
312.5137, 1304.738
314.4421, 1270.781
316.3706, 1216.440
318.2991, 1144.882
320.2275, 1062.410
322.1560, 989.5558
324.0845, 926.5853
326.0129, 866.8715
327.9414, 810.8265
329.8699, 755.2220
331.7983, 694.1674
333.7268, 638.3872
335.6553, 596.2661
337.5837, 564.5367
339.5122, 537.3049
341.4407, 514.1864
343.3691, 492.3217
345.2976, 469.6381
347.2261, 453.6470
349.1545, 450.6662
351.0830, 448.5711
353.0115, 441.3717
354.9399, 432.7835
356.8684, 428.6603
358.7969, 427.0616
360.7253, 421.4464
362.6538, 411.0471
364.5823, 400.3019
366.5107, 390.0642
368.4392, 379.3251
370.3677, 368.5492
372.2961, 356.5180
374.2246, 339.7062
376.1531, 322.3239
378.0815, 312.9265
380.0100, 310.3102
381.9385, 304.4275
383.8669, 292.3441
385.7954, 283.3511
387.7239, 280.1776
389.6523, 278.3541
391.5808, 277.0213
393.5093, 275.8000
395.4377, 273.9499
397.3662, 272.0962
399.2947, 272.0362
401.2231, 273.7760
403.1516, 273.3215
405.0801, 267.5378
407.0085, 265.4671
408.9370, 270.7313
410.8655, 276.4799
412.7939, 281.0506
414.7224, 283.8501
416.6509, 282.9141
418.5793, 280.1779
420.5078, 279.5724
422.4363, 281.2543
424.3647, 283.6897
426.2932, 287.4064
428.2217, 290.6412
430.1501, 288.7075
432.0786, 292.1623
434.0071, 305.0163
435.9355, 325.2877
437.8640, 347.3228
439.7925, 377.0833
441.7209, 432.0007
443.6494, 512.5197
445.5779, 581.2040
447.5063, 644.0563
449.4348, 676.7643
451.3633, 668.3920
453.2917, 644.9077
455.2202, 605.4316
457.1487, 562.4877
459.0771, 521.3183
461.0056, 485.1219
462.9341, 458.0001
464.8625, 440.0202
466.7910, 432.1596
468.7195, 437.2475
470.6479, 444.4445
472.5764, 453.3258
474.5049, 464.3192
476.4333, 481.3594
478.3618, 495.7509
480.2903, 505.1994
482.2188, 507.8222
484.1472, 500.7849
486.0757, 486.6400
488.0042, 471.3459
489.9326, 454.6583
491.8611, 439.7049
493.7896, 426.0168
495.7180, 415.1970
497.6465, 408.2288
499.5750, 402.5031
501.5034, 397.1879
503.4319, 393.0669
505.3604, 389.9031
507.2888, 388.8365
509.2173, 392.2901
511.1458, 398.7055
513.0742, 403.6323
515.0027, 407.4059
516.9312, 406.1656
518.8596, 397.2077
520.7881, 390.3941
522.7166, 390.0871
524.6450, 383.9963
526.5735, 364.1647
528.5020, 343.6404
530.4304, 328.6312
532.3589, 318.1710
534.2874, 313.6549
536.2158, 312.4973
538.1443, 308.1089
540.0728, 300.4977
542.0012, 294.0939
543.9297, 289.0929
545.8582, 284.5377
547.7866, 280.1329
549.7151, 277.0377
551.6436, 277.3471
553.5720, 275.6272
555.5005, 264.9201
557.4290, 256.3191
559.3574, 259.0029
561.2859, 267.2494
563.2144, 274.6093
565.1428, 280.5565
567.0713, 281.6306
568.9998, 277.0872
570.9282, 278.2087
572.8567, 286.4903
574.7852, 292.2776
576.7136, 293.3453
578.6421, 295.0390
580.5706, 298.4405
582.4990, 303.7566
584.4275, 310.5950
586.3560, 319.9881
588.2844, 333.3636
590.2129, 349.3118
592.1414, 364.1471
594.0698, 380.0236
595.9983, 403.6656
597.9268, 435.3783
599.8552, 480.0842
601.7837, 539.3593
603.7122, 595.9778
605.6406, 646.1697
607.5691, 700.3007
609.4976, 754.2916
611.4260, 826.7213
613.3545, 935.5070
615.2830, 1053.034
617.2114, 1181.073
619.1399, 1296.296
621.0684, 1382.015
622.9968, 1434.982
624.9253, 1447.330
626.8538, 1421.070
628.7822, 1359.297
630.7107, 1264.619
632.6392, 1170.921
634.5676, 1079.112
636.4961, 993.3560
638.4246, 907.8903
640.3530, 852.3796
642.2815, 831.7441
644.2100, 848.4305
646.1384, 885.9503
648.0669, 981.7847
649.9954, 1149.225
651.9238, 1389.305
653.8523, 1724.181
655.7808, 2117.288
657.7092, 2562.333
659.6377, 3009.949
661.5662, 3344.679
663.4946, 3556.130
665.4231, 3546.285
667.3516, 3315.213
669.2800, 2999.417
671.2085, 2597.019
673.1370, 2213.590
675.0654, 1855.276
676.9939, 1550.499
678.9224, 1319.187
680.8508, 1125.264
682.7793, 965.4789
684.7078, 831.6711
686.6362, 723.5867
688.5647, 635.3748
690.4932, 564.9653
692.4216, 509.1262
694.3501, 466.7388
696.2786, 434.6214
698.2070, 407.7551
700.1355, 385.2852
702.0640, 364.9113
703.9924, 346.6346
705.9209, 331.0490
707.8494, 318.3028
709.7778, 304.8597
711.7063, 289.4432
713.6348, 277.3723
715.5632, 271.6273
717.4917, 264.6847
719.4202, 252.4858
721.3486, 243.4501
723.2771, 244.6957
725.2056, 242.5982
727.1340, 225.4074
729.0625, 209.6925
730.9910, 210.1091
732.9194, 213.9246
734.8479, 206.6815
736.7764, 196.8692
738.7048, 198.0883
740.6333, 204.0938
742.5618, 202.4445
744.4902, 196.0969
746.4187, 195.2827
748.3472, 199.4454
750.2756, 202.4624
752.2041, 204.2502
754.1326, 200.6535
756.0610, 188.6454
757.9895, 183.1990
759.9180, 190.5089
761.8464, 193.0399
763.7749, 184.2954
765.7034, 180.2031
767.6318, 188.5636
769.5603, 192.5716
771.4888, 182.8750
773.4172, 175.3400
775.3457, 177.8415
777.2742, 182.3075
779.2026, 186.0269
781.1311, 187.8132
783.0596, 185.2288
784.9880, 181.8335
786.9165, 181.6515
788.8450, 182.1251
790.7734, 179.3692
792.7019, 175.6670
794.6304, 175.1588
796.5588, 177.0955
798.4873, 179.8447
800.4158, 183.0648
802.3442, 184.7363
804.2727, 184.8498
806.2012, 183.6068
808.1296, 180.5572
810.0581, 180.1889
811.9866, 183.4930
813.9150, 185.5519
815.8435, 185.4035
817.7720, 186.6673
819.7004, 190.2813
821.6289, 192.8503
823.5574, 193.0898
825.4858, 194.8472
827.4143, 199.0355
829.3428, 204.0606
831.2712, 209.4294
833.1997, 215.8795
835.1282, 224.8234
837.0566, 232.3295
838.9851, 233.3609
840.9136, 238.7067
842.8420, 257.2327
844.7705, 276.5711
846.6990, 285.4004
848.6274, 297.5894
850.5559, 323.8292
852.4844, 355.5490
854.4128, 390.1798
856.3413, 422.7375
858.2698, 448.8298
860.1982, 469.4695
862.1267, 488.9535
864.0552, 501.3633
865.9836, 495.9173
867.9121, 477.9317
869.8406, 455.1781
871.7690, 429.1628
873.6975, 399.6045
875.6260, 370.9601
877.5544, 355.7628
879.4829, 354.2572
881.4114, 369.5203
883.3398, 399.7654
885.2683, 432.6328
887.1968, 468.8876
889.1252, 513.8745
891.0537, 568.2767
892.9822, 641.6522
894.9106, 734.4567
896.8391, 883.3912
898.7676, 1089.025
900.6960, 1352.662
902.6245, 1674.218
904.5530, 2091.281
906.4814, 2611.856
908.4099, 3083.119
910.3384, 3497.466
912.2668, 3755.529
914.1953, 3844.381
916.1238, 3795.916
918.0522, 3606.228
919.9807, 3338.977
921.9092, 2994.733
923.8376, 2624.424
925.7661, 2224.787
927.6946, 1864.957
929.6230, 1553.851
931.5515, 1300.423
933.4800, 1111.173
935.4084, 962.3354
937.3369, 854.7246
939.2654, 768.4023
941.1938, 699.6276
943.1223, 652.2805
945.0508, 633.1086
946.9792, 619.3941
948.9077, 607.1253
950.8362, 598.4105
952.7646, 598.0107
954.6931, 591.2440
956.6216, 571.2262
958.5500, 552.4446
960.4785, 538.9210
962.4070, 525.1378
964.3354, 508.9766
966.2639, 494.1897
968.1924, 482.0787
970.1208, 470.4529
972.0493, 458.0067
973.9778, 447.4354
975.9063, 437.1144
977.8347, 432.4556
979.7632, 436.9213
981.6917, 443.2610
983.6201, 449.3566
985.5486, 458.1797
987.4771, 472.4507
989.4055, 485.9506
991.3340, 497.9739
993.2625, 507.9718
995.1909, 518.6370
997.1194, 522.3333
999.0479, 514.2178
1000.976, 504.7158
1002.905, 498.2280
1004.833, 486.4634
1006.762, 468.4791
1008.690, 443.9738
1010.619, 403.4979
1012.547, 373.3126
1014.476, 362.6309
1016.404, 353.4553
1018.333, 343.2144
1020.261, 334.2271
1022.189, 327.4296
1024.118, 320.7641
1026.046, 314.9156
1027.975, 307.4943
1029.903, 296.5924
1031.832, 287.3866
1033.760, 279.9055
1035.689, 274.7706
1037.617, 274.9586
1039.546, 271.6058
1041.474, 261.7399
1043.403, 254.0601
1045.331, 249.6024
1047.260, 244.8087
1049.188, 238.5482
1051.116, 235.4830
1053.045, 237.7640
1054.973, 235.4592
1056.902, 227.1432
1058.830, 220.6523
1060.759, 216.1459
1062.687, 212.6449
1064.616, 210.2606
1066.544, 207.2307
1068.473, 203.4532
1070.401, 203.5354
1072.330, 207.2179
1074.258, 206.4093
1076.187, 201.7290
1078.115, 199.5349
1080.043, 199.1373
1081.972, 196.2708
1083.900, 191.7860
1085.829, 188.4587
1087.757, 186.5291
1089.686, 188.2794
1091.614, 190.9599
1093.543, 187.3478
1095.471, 181.0823
1097.400, 178.3458
1099.328, 177.5067
1101.257, 176.9068
1103.185, 176.0792
1105.114, 174.2635
1107.042, 172.1679
1108.970, 169.0788
1110.899, 167.7739
1112.827, 172.0023
1114.756, 176.7155
1116.684, 179.2244
1118.613, 180.4858
1120.541, 180.4681
1122.470, 180.1555
1124.398, 180.0065
1126.327, 179.4568
1128.255, 177.8708
1130.184, 176.9379
1132.112, 176.7074
1134.041, 179.1321
1135.969, 185.6967
1137.897, 190.2663
1139.826, 191.7624
1141.754, 189.6363
1143.683, 183.1372
1145.611, 183.4337
1147.540, 191.7587
1149.468, 194.3172
1151.397, 190.7110
1153.325, 193.0918
1155.254, 200.4570
1157.182, 199.3561
1159.111, 191.9676
1161.039, 187.9772
1162.968, 187.5604
1164.896, 192.5131
1166.824, 200.4393
1168.753, 207.8059
1170.681, 213.8867
1172.610, 216.7367
1174.538, 218.7529
1176.467, 222.9786
1178.395, 227.0238
1180.324, 226.7422
1182.252, 228.7791
1184.181, 239.8067
1186.109, 249.9989
1188.038, 253.5415
1189.966, 258.2542
1191.895, 268.9013
1193.823, 275.2166
1195.751, 272.6938
1197.680, 275.5725
1199.608, 287.4776
1201.537, 292.6690
1203.465, 289.1552
1205.394, 293.3858
1207.322, 305.8753
1209.251, 321.9147
1211.179, 339.3163
1213.108, 347.7787
1215.036, 350.2858
1216.965, 355.6085
1218.893, 361.6231
1220.822, 363.5455
1222.750, 364.8885
1224.678, 368.2362
1226.607, 375.1951
1228.535, 391.7588
1230.464, 405.5521
1232.392, 408.0099
1234.321, 407.0813
1236.249, 403.9485
1238.178, 401.9092
1240.106, 402.0057
1242.035, 403.0368
1243.963, 407.6102
1245.892, 405.7216
1247.820, 395.0732
1249.749, 389.6488
1251.677, 389.6536
1253.605, 383.9393
1255.534, 374.0564
1257.462, 369.3599
1259.391, 367.4230
1261.319, 363.3787
1263.248, 357.3829
1265.176, 347.2118
1267.105, 338.4634
1269.033, 338.3972
1270.962, 336.7507
1272.890, 325.0604
1274.819, 315.7268
1276.747, 313.8336
1278.676, 314.3521
1280.604, 317.5245
1282.532, 318.3338
1284.461, 316.2067
1286.389, 309.9234
1288.318, 299.0966
1290.246, 300.6219
1292.175, 311.9623
1294.103, 321.1100
1296.032, 327.0564
1297.960, 324.7080
1299.889, 320.6816
1301.817, 323.1979
1303.746, 328.4256
1305.674, 336.4129
1307.603, 340.4892
1309.531, 333.8609
1311.459, 334.3759
1313.388, 349.0478
1315.316, 362.9665
1317.245, 373.5482
1319.173, 383.3968
1321.102, 392.6946
1323.030, 401.4721
1324.959, 409.6640
1326.887, 415.8625
1328.816, 422.1474
1330.744, 434.6303
1332.673, 447.8501
1334.601, 456.8343
1336.530, 461.8268
1338.458, 463.3696
1340.386, 459.5227
1342.315, 446.6373
1344.243, 438.5484
1346.172, 438.8807
1348.100, 437.1186
1350.029, 432.0910
1351.957, 427.2392
1353.886, 422.0949
1355.814, 412.5609
1357.743, 400.3113
1359.671, 387.6018
1361.600, 376.0612
1363.528, 367.3842
1365.457, 361.0833
1367.385, 356.2368
1369.313, 355.1335
1371.242, 361.9942
1373.170, 361.0589
1375.099, 348.2658
1377.027, 344.3651
1378.956, 350.2191
1380.884, 354.7057
1382.813, 356.9140
1384.741, 354.5098
1386.670, 350.6409
1388.598, 351.4987
1390.527, 351.6148
1392.455, 343.5654
1394.384, 337.5257
1396.312, 337.1378
1398.240, 342.6795
1400.169, 356.8255
1402.097, 365.7493
1404.026, 368.5135
1405.954, 369.7387
1407.883, 370.5486
1409.811, 374.5868
1411.740, 380.8615
1413.668, 389.5592
1415.597, 396.8931
1417.525, 398.4030
1419.454, 399.5417
1421.382, 403.1825
1423.311, 406.0826
1425.239, 406.7606
1427.167, 410.8172
1429.096, 418.5683
1431.024, 410.8576
1432.953, 394.2014
1434.881, 392.0106
1436.810, 396.2943
1438.738, 399.1132
1440.667, 399.9762
1442.595, 399.3598
1444.524, 394.9519
1446.452, 383.6576
1448.381, 373.9467
1450.309, 365.7104
1452.238, 366.2819
1454.166, 373.5336
1456.094, 370.6850
1458.023, 362.8329
1459.951, 356.0933
1461.880, 354.4314
1463.808, 365.3263
1465.737, 371.5311
1467.665, 363.3553
1469.594, 359.1909
1471.522, 363.7621
1473.451, 363.5878
1475.379, 359.1439
1477.308, 357.6464
1479.236, 357.3269
1481.165, 351.4136
1483.093, 349.4499
1485.021, 363.5103
1486.950, 373.3923
1488.878, 370.5696
1490.807, 366.9642
1492.735, 364.3950
1494.664, 366.0493
1496.592, 371.1662
1498.521, 375.2503
1500.449, 379.2366
1502.378, 385.5616
1504.306, 391.3676
1506.235, 395.0738
1508.163, 396.2779
1510.092, 393.9288
1512.020, 395.4807
1513.948, 401.7212
1515.877, 403.3565
1517.805, 402.1292
1519.734, 404.3367
1521.662, 407.6267
1523.591, 406.7225
1525.519, 410.2341
1527.448, 425.9740
1529.376, 434.9682
1531.305, 433.6090
1533.233, 431.4660
1535.162, 428.6860
1537.090, 418.6824
1539.019, 408.1809
1540.947, 410.8578
1542.875, 415.3578
1544.804, 412.5103
1546.732, 410.8772
1548.661, 413.1513
1550.589, 412.9608
1552.518, 409.2663
1554.446, 393.9281
1556.375, 375.4921
1558.303, 372.9498
1560.232, 375.5399
1562.160, 375.0948
1564.089, 374.5458
1566.017, 377.2905
1567.946, 369.6972
1569.874, 351.7976
1571.802, 347.1941
1573.731, 351.3725
1575.659, 353.8227
1577.588, 354.2572
1579.516, 351.9389
1581.445, 348.5367
1583.373, 342.8133
1585.302, 341.4275
1587.230, 344.6056
1589.159, 342.1425
1591.087, 337.5476
1593.016, 340.2005
1594.944, 344.4630
1596.873, 346.3675
1598.801, 347.2881
1600.729, 349.2550
1602.658, 344.8317
1604.586, 334.0614
1606.515, 334.7495
1608.443, 340.5653
1610.372, 339.2357
1612.300, 336.1523
1614.229, 334.1187
1616.157, 332.7141
1618.086, 331.3887
1620.014, 333.2573
1621.943, 337.6741
1623.871, 342.3215
1625.800, 342.4970
1627.728, 326.5894
1629.656, 314.1110
1631.585, 314.7946
1633.513, 318.6580
1635.442, 324.5110
1637.370, 329.4985
1639.299, 331.4420
1641.227, 319.2496
1643.156, 306.7409
1645.084, 305.9964
1647.013, 305.8116
1648.941, 302.9903
1650.870, 299.0967
1652.798, 294.4809
1654.727, 291.1586
1656.655, 287.6655
1658.583, 279.7650
1660.512, 274.6481
1662.440, 276.2742
1664.369, 277.0343
1666.297, 275.6027
1668.226, 269.2654
1670.154, 261.6821
1672.083, 263.6587
1674.011, 265.4503
1675.940, 257.8232
1677.868, 253.7632
1679.797, 255.8518
1681.725, 261.3011
1683.654, 267.1715
1685.582, 263.8615
1687.510, 256.2766
1689.439, 247.1371
1691.367, 239.9039
1693.296, 234.9525
1695.224, 236.7056
1697.153, 244.1705
1699.081, 252.3661
1701.010, 258.2545
1702.938, 257.8714
1704.867, 254.0417
1706.795, 247.0174
1708.724, 240.1547
1710.652, 234.2448
1712.581, 233.4810
1714.509, 235.2097
1716.438, 237.3802
1718.366, 237.6715
1720.294, 234.2902
1722.223, 230.3828
1724.151, 226.3981
1726.080, 224.4618
1728.008, 224.4584
1729.937, 228.9320
1731.865, 229.9230
1733.794, 218.8775
1735.722, 216.3700
1737.651, 222.3030
1739.579, 217.4939
1741.508, 208.3484
1743.436, 201.8107
1745.365, 199.8105
1747.293, 206.9909
1749.221, 209.1812
1751.150, 206.0945
1753.078, 203.7870
1755.007, 201.1585
1756.935, 195.9962
1758.864, 192.1234
1760.792, 193.4136
1762.721, 186.3420
1764.649, 172.9567
1766.578, 175.2124
1768.506, 181.7247
1770.435, 181.9767
1772.363, 179.9140
1774.292, 176.1021
1776.220, 173.8957
1778.148, 173.2384
1780.077, 174.7298
1782.005, 175.4534
1783.934, 173.1335
1785.862, 168.9066
1787.791, 162.5622
1789.719, 165.4831
1791.648, 171.7733
1793.576, 164.0529
1795.505, 156.0240
1797.433, 155.0230
1799.362, 156.5487
1801.290, 159.3952
1803.219, 155.9941
1805.147, 150.5603
1807.075, 149.6112
1809.004, 148.1879
1810.932, 144.5349
1812.861, 141.9787
1814.789, 141.0593
1816.718, 143.4497
1818.646, 146.3174
1820.575, 147.1945
1822.503, 147.6747
1824.432, 148.0999
1826.360, 140.9994
1828.289, 132.5050
1830.217, 136.6370
1832.146, 139.9865
1834.074, 136.9220
1836.002, 132.2895
1837.931, 127.4077
1839.859, 128.7487
1841.788, 131.1328
1843.716, 127.6065
1845.645, 124.5095
1847.573, 123.0433
1849.502, 124.7317
1851.430, 127.3988
1853.359, 124.6971
1855.287, 121.7393
1857.216, 120.1552
1859.144, 121.6482
1861.073, 125.5839
1863.001, 124.7712
1864.929, 122.2214
1866.858, 119.8412
1868.786, 119.5769
1870.715, 121.3539
1872.643, 121.3723
1874.572, 120.0883
1876.500, 113.9786
1878.429, 109.9835
1880.357, 115.0599
1882.286, 115.9291
1884.214, 112.9416
1886.143, 108.4591
1888.071, 106.3113
1890.000, 111.5486
1891.928, 111.7208
1893.856, 107.3555
1895.785, 110.0036
1897.713, 113.9246
1899.642, 114.0095
1901.570, 113.5521
1903.499, 114.1193
1905.427, 111.0491
1907.356, 106.5367
1909.284, 107.5851
1911.213, 109.0588
1913.141, 106.8511
1915.070, 103.6389
1916.998, 101.3391
1918.927, 103.3781
1920.855, 103.4662
1922.783, 98.36115
1924.712, 96.26547
1926.640, 96.82220
1928.569, 98.56033
1930.497, 99.41645
1932.426, 97.79128
1934.354, 98.30981
1936.283, 101.5309
1938.211, 99.00088
1940.140, 96.16928
1942.068, 100.5949
1943.997, 101.5637
1945.925, 97.26711
1947.854, 95.76167
1949.782, 95.78172
1951.710, 95.83447
1953.639, 95.96220
1955.567, 95.97718
1957.496, 93.34911
1959.424, 91.04456
1961.353, 95.00023
1963.281, 96.27892
1965.210, 92.57151
1967.138, 92.14911
1969.067, 93.03006
1970.995, 96.07261
1972.924, 92.57639
1974.852, 80.54053
1976.781, 81.08041
1978.709, 87.04250
1980.637, 84.84224
1982.566, 84.90068
1984.494, 90.41463
1986.423, 91.05453
1988.351, 88.94577
1990.280, 87.95911
1992.208, 84.64685
1994.137, 77.28432
1996.065, 77.99220
1997.994, 82.95830
1999.922, 87.08856
2001.851, 87.38580
2003.779, 81.61776
2005.708, 83.15090
2007.636, 86.75121
2009.564, 85.76688
2011.493, 83.22236
2013.421, 78.76372
2015.350, 77.71796
2017.278, 78.35247
2019.207, 77.77842
2021.135, 78.56661
2023.064, 81.84357
2024.992, 79.64366
2026.921, 75.67979
2028.849, 72.93415
2030.778, 73.72459
2032.706, 78.21384
2034.635, 77.75082
2036.563, 76.21256
2038.491, 77.43327
2040.420, 77.97623
2042.348, 77.30276
2044.277, 77.45946
2046.205, 75.71961
2048.134, 69.32834
2050.062, 68.58624
2051.991, 72.68473
2053.919, 73.36005
2055.848, 73.16241
2057.776, 73.56971
2059.705, 74.89817
2061.633, 76.34642
2063.562, 75.34363
2065.490, 73.04591
2067.418, 69.80113
2069.347, 68.34526
2071.275, 69.00706
2073.204, 73.41924
2075.132, 73.59669
2077.061, 68.31531
2078.989, 67.73795
2080.918, 69.24836
2082.846, 69.66647
2084.775, 69.17632
2086.703, 67.93407
2088.632, 66.19144
2090.560, 65.20198
2092.489, 66.28596
2094.417, 67.29972
2096.345, 67.99744
2098.274, 68.37246
2100.202, 68.14039
2102.131, 66.99912
2104.059, 67.15606
2105.988, 67.48556
2107.916, 65.36643
2109.845, 63.09170
2111.773, 61.42550
2113.702, 63.95270
2115.630, 66.99175
2117.559, 66.21817
2119.487, 65.65878
2121.416, 65.84142
2123.344, 67.86852
2125.272, 68.51957
2127.201, 64.54628
2129.129, 60.58296
2131.058, 58.22816
2132.986, 60.51703
2134.915, 61.96943
2136.843, 60.83370
2138.772, 58.84395
2140.700, 57.99802
2142.629, 59.31874
2144.557, 60.92455
2146.486, 62.45562
2148.414, 61.35543
2150.343, 59.77365
2152.271, 58.72082
2154.199, 57.94156
2156.128, 56.62429
2158.056, 53.47822
2159.985, 52.41868
2161.913, 53.51550
2163.842, 59.26580
2165.770, 64.02890
2167.699, 62.85907
2169.627, 59.37165
2171.556, 55.66261
2173.484, 55.56020
2175.413, 55.75864
2177.341, 54.47360
2179.270, 55.31231
2181.198, 55.75593
2183.126, 50.48617
2185.055, 53.63298
2186.983, 61.87178
2188.912, 54.43896
2190.840, 49.97056
2192.769, 52.93782
2194.697, 53.89374
2196.626, 54.71870
2198.554, 54.97964
2200.483, 54.14110
2202.411, 52.98104
2204.340, 52.70673
2206.268, 54.67774
2208.197, 55.95765
2210.125, 56.58814
2212.053, 57.88860
2213.982, 55.90467
2215.910, 53.57612
2217.839, 53.21614
2219.767, 48.02081
2221.696, 45.44663
2223.624, 51.06898
2225.553, 51.71650
2227.481, 49.21099
2229.410, 51.20761
2231.338, 52.84950
2233.267, 54.03110
2235.195, 51.80177
2237.124, 51.03609
2239.052, 51.90282
2240.980, 49.08175
2242.909, 47.77261
2244.837, 51.06413
2246.766, 49.36924
2248.694, 46.39948
2250.623, 46.66082
2252.551, 46.54599
2254.480, 45.46718
2256.408, 46.58147
2258.337, 48.23261
2260.265, 48.68566
2262.194, 48.27199
2264.122, 48.65553
2266.051, 50.79218
2267.979, 48.73826
2269.907, 44.64535
2271.836, 43.99848
2273.764, 42.41885
2275.693, 39.49820
2277.621, 40.94124
2279.550, 42.41936
2281.478, 42.67612
2283.407, 45.64528
2285.335, 49.10631
2287.264, 47.92016
2289.192, 46.91255
2291.121, 48.31409
2293.049, 51.08926
2294.978, 50.81807
2296.906, 46.49865
2298.834, 46.71407
2300.763, 48.15145
2302.691, 47.05501
2304.620, 44.93902
2306.548, 41.80990
2308.477, 46.24535
2310.405, 45.30718
2312.334, 38.91081
2314.262, 37.14391
2316.191, 37.43168
2318.119, 40.27509
2320.048, 42.78192
2321.976, 42.15641
2323.905, 41.49486
2325.833, 42.62539
2327.761, 43.06600
2329.690, 42.21301
2331.618, 39.39961
2333.547, 38.03989
2335.475, 39.63771
2337.404, 39.58803
2339.332, 37.35504
2341.261, 40.73735
2343.189, 43.31283
2345.118, 38.55156
2347.046, 36.44282
2348.975, 38.68140
2350.903, 42.02544
2352.832, 41.73838
2354.760, 41.62610
2356.688, 40.95502
2358.617, 37.20991
2360.545, 31.97982
2362.474, 35.34651
2364.402, 37.34357
2366.331, 36.92995
2368.259, 34.97270
2370.188, 33.13236
2372.116, 35.11167
2374.045, 34.79816
2375.973, 33.02754
2377.902, 31.64666
2379.830, 32.84441
2381.759, 35.89526
2383.687, 37.62123
2385.615, 37.81646
2387.544, 35.00260
2389.472, 34.02351
2391.401, 33.84187
2393.329, 33.76261
2395.258, 33.15409
2397.186, 34.16869
2399.115, 35.74157
2401.043, 34.92770
2402.972, 33.78098
2404.900, 34.27534
2406.829, 34.23429
2408.757, 33.87394
2410.686, 33.85674
2412.614, 31.24664
2414.542, 28.14219
2416.471, 26.93195
2418.399, 29.88653
2420.328, 32.75759
2422.256, 32.67778
2424.185, 31.07924
2426.113, 29.84058
2428.042, 31.02923
2429.970, 30.68145
2431.899, 28.90014
2433.827, 30.52822
2435.756, 30.93391
2437.684, 29.69983
2439.613, 27.62294
2441.541, 28.02489
2443.469, 28.51233
2445.398, 26.35813
2447.326, 27.08533
2449.255, 28.48585
2451.183, 28.00706
2453.112, 27.91630
2455.040, 29.26158
2456.969, 27.91866
2458.897, 28.21315
2460.826, 30.31959
2462.754, 25.52058
2464.683, 24.10241
2466.611, 28.31178
2468.540, 28.12383
2470.468, 26.74542
2472.396, 26.13218
2474.325, 24.71620
2476.253, 24.79132
2478.182, 28.64269
2480.110, 27.37871
2482.039, 23.90125
2483.967, 24.67456
2485.896, 25.76100
2487.824, 25.93628
2489.753, 27.38071
2491.681, 25.42975
2493.610, 21.34519
2495.538, 22.89466
2497.467, 24.38160
2499.395, 24.22687
2501.323, 22.54656
2503.252, 22.41277
2505.180, 23.07975
2507.109, 23.24313
2509.037, 24.32223
2510.966, 25.39253
2512.894, 23.31512
2514.823, 22.16242
2516.751, 21.79549
2518.680, 23.67852
2520.608, 23.97967
2522.537, 22.92172
2524.465, 28.09419
2526.394, 25.23219
2528.322, 16.13704
2530.250, 16.96412
2532.179, 19.08097
2534.107, 21.44103
2536.036, 21.19674
2537.964, 22.04406
2539.893, 24.41153
2541.821, 17.71606
2543.750, 16.34824
2545.678, 21.55380
2547.607, 18.78222
2549.535, 17.05101
2551.464, 18.37702
2553.392, 20.71335
2555.321, 22.45504
2557.249, 22.92689
2559.177, 18.67306
2561.106, 17.94453
2563.034, 20.89539
2564.963, 18.84129
2566.891, 17.83634
2568.820, 18.83312
2570.748, 21.34193
2572.677, 21.10818
2574.605, 18.40841
2576.534, 17.93830
2578.462, 17.46440
2580.391, 16.69029
2582.319, 17.65259
2584.248, 18.95966
2586.176, 19.34889
2588.104, 15.22699
2590.033, 14.17017
2591.961, 15.33089
2593.890, 11.93413
2595.818, 12.77015
2597.747, 17.05441
2599.675, 18.22494
2601.604, 16.30625
2603.532, 14.29179
2605.461, 17.09635
2607.389, 16.58325
2609.318, 14.51436
2611.246, 15.66822
2613.175, 17.06821
2615.103, 17.50775
2617.031, 17.13340
2618.960, 19.22980
2620.888, 19.53292
2622.817, 16.45120
2624.745, 16.10259
2626.674, 15.37187
2628.602, 14.99543
2630.531, 16.78051
2632.459, 17.31008
2634.388, 16.59163
2636.316, 20.81465
2638.245, 20.35121
2640.173, 12.80848
2642.102, 12.92618
2644.030, 14.52389
2645.958, 12.42792
2647.887, 15.30026
2649.815, 17.86510
2651.744, 16.25561
2653.672, 13.81915
2655.601, 13.18025
2657.529, 13.27253
2659.458, 13.11333
2661.386, 15.39934
2663.315, 17.25160
2665.243, 14.70840
2667.172, 13.95334
2669.100, 12.16056
2671.029, 11.82080
2672.957, 13.45396
2674.885, 14.46267
2676.814, 15.84930
2678.742, 14.96772
2680.671, 14.03160
2682.599, 14.00442
2684.528, 12.47767
2686.456, 11.20943
2688.385, 13.29595
2690.313, 13.22654
2692.242, 12.92429
2694.170, 12.14361
2696.099, 11.08143
2698.027, 9.526475
2699.956, 8.364334
2701.884, 15.72003
2703.813, 15.24469
2705.741, 13.61101
2707.669, 15.19226
2709.598, 12.32279
2711.526, 10.64498
2713.455, 10.95051
2715.383, 11.93631
2717.312, 10.96082
2719.240, 7.902486
2721.169, 9.857607
2723.097, 12.60958
2725.026, 13.11258
2726.954, 14.16089
2728.883, 13.51365
2730.811, 11.71309
2732.740, 10.99812
2734.668, 9.810417
2736.596, 7.538122
2738.525, 10.58938
2740.453, 11.41482
2742.382, 8.515307
2744.310, 7.633805
2746.239, 11.02024
2748.167, 12.67106
2750.096, 11.85308
2752.024, 10.74389
2753.953, 10.55346
2755.881, 13.24828
2757.810, 10.04616
2759.738, 6.759375
2761.667, 7.673052
2763.595, 9.893745
2765.523, 8.725219
2767.452, 9.664975
2769.380, 12.97245
2771.309, 8.946383
2773.237, 6.793928
2775.166, 10.45817
2777.094, 11.24564
2779.023, 7.655653
2780.951, 5.052141
2782.880, 7.527556
2784.808, 8.408426
2786.737, 6.672247
2788.665, 9.202875
2790.594, 9.333973
2792.522, 7.528446
2794.450, 6.316241
2796.379, 6.794570
2798.307, 7.402574
2800.236, 7.495885
2802.164, 10.54643
2804.093, 10.39077
2806.021, 6.701691
2807.950, 4.341925
2809.878, 9.180039
2811.807, 10.21746
2813.735, 4.291786
2815.664, 4.695508
2817.592, 7.113570
2819.521, 9.285891
2821.449, 7.809718
2823.377, 6.004759
2825.306, 6.893507
2827.234, 5.484715
2829.163, 6.659210
2831.091, 9.002280
2833.020, 6.615637
2834.948, 5.576358
2836.877, 5.879349
2838.805, 4.328269
2840.734, 5.786964
2842.662, 6.543740
2844.591, 7.828072
2846.519, 5.607240
2848.448, 4.451076
2850.376, 7.597046
2852.304, 8.835542
2854.233, 8.181115
2856.161, 7.436123
2858.090, 7.967139
2860.018, 4.598054
2861.947, 5.411845
2863.875, 6.998841
2865.804, 5.391192
2867.732, 5.339484
2869.661, 6.879708
2871.589, 9.630680
2873.518, 8.092693
2875.446, 7.791631
2877.375, 8.140592
2879.303, 0.5837064
2881.231, 1.516642
2883.160, 6.266628
2885.088, 10.00463
2887.017, 11.36251
2888.945, 10.70641
2890.874, 7.373170
2892.802, 7.019779
2894.731, 7.714111
2896.659, 6.872423
2898.588, 4.070044
2900.516, 5.178206
2902.445, 3.514600
2904.373, 3.077133
2906.302, 5.043146
2908.230, 1.571959
2910.158, 1.323405
2912.087, 3.739083
2914.015, 5.756917
2915.944, 4.641130
2917.872, 1.839234
2919.801, 4.677656
2921.729, 3.511965
2923.658, 3.944459
2925.586, 9.023296
2927.515, 7.277861
2929.443, 7.553493
2931.372, 7.832415
2933.300, 3.023610
2935.229, 1.529741
2937.157, 3.673633
2939.085, 7.478583
2941.014, 7.356899
2942.942, 5.452292
2944.871, 3.642627
2946.799, 4.953080
2948.728, 2.951128
2950.656, 3.157386
2952.585, 5.548455
2954.513, 2.941593
2956.442, 4.576057
2958.370, 6.848320
2960.299, 7.418303
2962.227, 5.344824
2964.156, 3.830717
2966.084, 3.137736
2968.012, 1.578102
2969.941, 6.987813
2971.869, 8.332877
2973.798, 2.342452
2975.726, 6.764322
2977.655, 7.350607
2979.583, 5.189736
2981.512, 3.562216
2983.440, 6.905364
2985.369, 5.824149
2987.297, 2.374844
2989.226, 3.539113
2991.154, 4.430064
2993.083, 2.700791
2995.011, 3.9537631E-02
2996.939, 6.982801
2998.868, 4.366181
3000.796, 1.092975
3002.725, 5.132154
3004.653, 8.105870
3006.582, 5.098280
3008.510, -6.9684379E-02
3010.439, -0.1980985
3012.367, 2.557461
3014.296, 3.621686
3016.224, 2.802201
3018.153, 7.729640
3020.081, 4.584594
3022.010, 2.716245
3023.938, 7.326147
3025.866, 3.044486
3027.795, 4.323883
3029.723, 4.827210
3031.652, -3.493739
3033.580, 0.9625707
3035.509, 3.469054
3037.437, 2.502124
3039.366, 3.944580
3041.294, 1.968664
3043.223, -0.8006109
3045.151, -2.244499
3047.080, 0.6087169
3049.008, 2.384592
3050.937, 2.056921
3052.865, 0.6669750
3054.793, 1.538384
3056.722, 3.549423
3058.650, 4.138014
3060.579, 2.207798
3062.507, 1.673689
3064.436, 4.437387
3066.364, 5.545992
3068.293, 0.5407293
3070.221, -0.4838291
3072.150, 0.1445081
3074.078, 2.472077
3076.007, 9.793600
3077.935, 6.957825
3079.864, 5.185386
3081.792, 5.943499
3083.720, 2.607275
3085.649, 6.952783
3087.577, 6.389991
3089.506, 0.5587574
3091.434, -0.2196417
3093.363, 7.1189240E-02
3095.291, 3.190659
3097.220, 6.780793
3099.148, 2.782237
3101.077, 3.747205
3103.005, 5.434639
3104.934, 4.969720
3106.862, 4.485482
3108.791, 2.581156
3110.719, 3.154146
3112.647, 7.499389
3114.576, 7.695295
3116.504, 3.860286
3118.433, 2.459015
3120.361, 6.305257
3122.290, 5.761822
3124.218, 3.128000
3126.147, 2.914213
3128.075, 7.293155
3130.004, 5.599360
3131.932, 8.980327
3133.861, 9.681381
3135.789, 5.244201
3137.718, 3.996211
3139.646, 0.7308755
3141.574, 0.4627766
3143.503, 4.439442
3145.431, 6.193017
3147.360, 1.557657
3149.288, 4.4911619E-02
3151.217, 4.801490
3153.145, 9.300985
3155.074, 3.587441
3157.002, -0.1687867
3158.931, 3.933365
3160.859, 4.991055
3162.788, 5.487355
3164.716, 5.873367
3166.645, 3.022046
3168.573, 6.920181
3170.501, 10.18941
3172.430, 8.158249
3174.358, 5.428134
3176.287, 9.250422
3178.215, 6.912664
3180.144, 3.741139
3182.072, 4.601049
3184.001, 8.189328
3185.929, 5.411918
3187.858, 4.729173
3189.786, 7.122687
3191.715, 6.147820
3193.643, 8.435494
3195.572, 7.989187
3197.500, 5.347190
3199.428, 7.584335
3201.357, 7.224081
3203.285, 9.600701
3205.214, 11.21563
3207.142, 10.21119
3209.071, 7.662199
3210.999, 4.427113
3212.928, 5.896995
3214.856, 11.64457
3216.785, 8.687002
3218.713, 8.653623
3220.642, 11.14279
3222.570, 13.77456
3224.499, 8.118081
3226.427, 6.302752
3228.355, 7.434505
3230.284, 10.17438
3232.212, 6.962925
3234.141, 7.224127
3236.069, 6.844982
3237.998, 6.743927
3239.926, 2.657958
3241.855, -7.5766057E-02
3243.783, 2.755526
3245.712, 5.958300
3247.640, 4.936515
3249.569, 5.012065
3251.497, 6.820545
3253.426, 9.653013
3255.354, 13.21654
3257.282, 14.17591
3259.211, 9.112971
3261.139, 11.71185
3263.068, 17.26579
3264.996, 11.52169
3266.925, 9.184060
3268.853, 9.291883
3270.782, 12.31476
3272.710, 17.79391
3274.639, 17.85665
3276.567, 13.98935
3278.496, 13.82153
3280.424, 17.63670
3282.353, 19.91800
3284.281, 13.39662
3286.209, 12.75072
3288.138, 17.31016
3290.066, 23.33723
3291.995, 21.57314
3293.923, 21.39759
3295.852, 20.29669
3297.780, 17.00471
3299.709, 18.84643
3301.637, 18.29382
3303.566, 15.57925
3305.494, 14.37910
3307.423, 17.78611
3309.351, 13.32134
3311.280, 11.20398
3313.208, 9.654581
3315.136, 8.540437
3317.065, 12.60883
3318.993, 7.598960
3320.922, 5.497196
3322.850, 7.146077
3324.779, 10.08785
3326.707, 11.23950
3328.636, 12.21904
3330.564, 14.23254
3332.493, 13.62350
3334.421, 6.214907
3336.350, 7.913331
3338.278, 8.817612
3340.207, 9.424020
3342.135, 10.35899
3344.063, 5.274394
3345.992, 4.412436
3347.920, 6.601199
3349.849, 8.794113
3351.777, 8.067196
3353.706, 8.123390
3355.634, 6.785200
3357.563, 3.949637
3359.491, 1.876019
3361.420, 6.144373
3363.348, 5.300920
3365.277, 2.679744
3367.205, -0.4369345
3369.134, -2.247036
3371.062, 1.382529
3372.990, 3.404500
3374.919, 8.213168
3376.847, 11.07828
3378.776, 8.358862
3380.704, 6.044000
3382.633, 3.610983
3384.561, 7.988655
3386.490, 10.23745
3388.418, -0.6986805
3390.347, 8.856504
3392.275, 4.763120
3394.204, 0.3883222
3396.132, 1.257111
3398.061, 1.831256
3399.989, 10.57425
3401.917, 5.890061
3403.846, 3.069743
3405.774, 6.209581
3407.703, 2.996356
3409.631, 5.517185
3411.560, 6.788111
3413.488, 7.364440
3415.417, 6.654437
3417.345, 0.7498223
3419.274, 3.394833
3421.202, 1.078015
3423.131, -0.3778746
3425.059, 2.591752
3426.988, 2.499634
3428.916, 4.426275
3430.844, 6.421008
3432.773, 6.065232
3434.701, 4.142074
3436.630, 6.223348
3438.558, 10.17537
3440.487, 3.381126
3442.415, -1.594414
3444.344, 1.320443
3446.272, -1.088651
3448.201, -1.387833
3450.129, 4.124285
3452.058, 8.181373
3453.986, 6.857582
3455.915, 3.286754
3457.843, 2.738838
3459.771, 3.049435
3461.700, 2.105975
3463.628, -7.3937424E-02
3465.557, -1.530731
3467.485, 1.489914
3469.414, 3.358007
3471.342, 4.912491
3473.271, 5.238874
3475.199, 1.899400
3477.128, -1.439597
3479.056, 3.210052
3480.985, 3.616024
3482.913, -0.5241984
3484.842, -1.551634
3486.770, 6.695987
3488.698, 6.177144
3490.627, 2.540075
3492.555, -0.5577006
3494.484, -1.257694
3496.412, 3.356711
3498.341, 3.521351
3500.269, 1.088842
3502.198, 0.3165612
3504.126, 3.180592
3506.055, 8.155321
3507.983, 1.841469
3509.912, 1.379531
3511.840, 2.987563
3513.769, 4.736701
3515.697, 6.986574
3517.625, 1.059701
3519.554, 1.733992
3521.482, 2.461508
3523.411, 3.685160
3525.339, 5.570764
3527.268, 0.4420704
3529.196, 2.645859
3531.125, 5.964199
3533.053, 6.304437
3534.982, 3.938843
3536.910, 1.548718
3538.839, 2.344842
3540.767, 3.988121
3542.696, 3.228323
3544.624, 0.5841405
3546.552, -1.173218
3548.481, 2.770468
3550.409, -2.850072
3552.338, -0.8002179
3554.266, 0.5554772
3556.195, -1.674910
3558.123, -2.743072
3560.052, 0.4835691
3561.980, 2.434267
3563.909, 2.363030
3565.837, 0.8307607
3567.766, -1.647483
3569.694, -4.204227
3571.623, 0.1244932
3573.551, 1.051021
3575.479, 2.249940
3577.408, 4.758926
3579.336, 6.658654
3581.265, 5.557724
3583.193, 7.288494
3585.122, 2.769118
3587.050, 1.146459
3588.979, 2.5417799E-02
3590.907, -5.205424
3592.836, -3.665171
3594.764, 2.255001
3596.693, 3.831351
3598.621, 1.558883
3600.550, -1.965243
3602.478, -4.178914
3604.406, 0.8510785
3606.335, -1.945533
3608.263, -0.7211093
3610.192, 2.178961
3612.120, 2.268901
3614.049, -1.092202
3615.977, -3.037793
3617.906, 0.8989621
3619.834, 3.630704
3621.763, 3.413239
3623.691, 3.190756
3625.620, 5.441426
3627.548, 2.158629
3629.477, 0.5682730
3631.405, -0.5814120
3633.333, -2.102534
3635.262, -2.571084
3637.190, -0.1655883
3639.119, 4.477331
3641.047, 8.187878
3642.976, 5.543879
3644.904, 1.309301
3646.833, 0.8154873
3648.761, 3.926470
3650.690, 2.923668
3652.618, 3.193707
3654.547, -0.2216844
3656.475, 0.8460139
3658.404, 1.686342
3660.332, -1.187919
3662.260, -0.2041790
3664.189, 1.257188
3666.117, 0.1586395
3668.046, 1.897452
3669.974, 0.8415409
3671.903, 0.2281169
3673.831, 7.060772
3675.760, -2.320888
3677.688, -6.264346
3679.617, 0.1774433
3681.545, 3.614258
3683.474, 3.110666
3685.402, 2.674753
3687.331, -2.523333
3689.259, 1.707930
3691.188, 1.358376
3693.116, 4.404271
3695.044, 2.041955
3696.973, -3.604104
3698.901, 1.059757
3700.830, 4.634277
3702.758, -4.615300
3704.687, -2.930839
3706.615, 1.299180
3708.544, -0.7786969
3710.472, -4.904782
3712.401, 2.116800
3714.329, 3.284279
3716.258, -1.123999
3718.186, -2.932466
3720.115, -2.097645
3722.043, -1.650382
3723.971, -2.783295
3725.900, -2.948891
3727.828, -0.4206387
3729.757, -1.445169
3731.685, 1.665691
3733.614, 0.1474587
3735.542, -3.522650
3737.471, -3.253574
3739.399, -9.331692
3741.328, -5.925038
3743.256, 0.4834591
3745.185, 3.238501
3747.113, 1.126517
3749.042, -1.572988
3750.970, 0.3141986
3752.898, 8.099258
3754.827, 1.001401
3756.755, 4.314597
3758.684, 2.779385
3760.612, 3.394455
3762.541, 4.585793
3764.469, 1.426577
3766.398, 1.665190
3768.326, -4.866242
3770.255, -2.030684
3772.183, 1.929754
3774.112, 7.226229
3776.040, 4.752919
3777.969, -3.819855
3779.897, -1.555582
3781.825, -2.764949
3783.754, -1.228631
3785.682, 4.650402
3787.611, 0.5290544
3789.539, -3.789076
3791.468, -2.747518
3793.396, -1.299797
3795.325, 2.292854
3797.253, 5.377045
3799.182, 3.789632
3801.110, 1.987432
3803.039, 1.979095
3804.967, -0.6761446
3806.896, -2.753593
3808.824, 2.515784
3810.752, -4.592714
3812.681, -6.215164
3814.609, -2.176294
3816.538, 1.748690
3818.466, 2.009971
3820.395, 2.158770
3822.323, 4.521367
3824.252, 4.570122
3826.180, -3.311853
3828.109, -3.199780
3830.037, -3.552179
3831.966, 0.5409664
3833.894, 1.559459
3835.823, 0.2426484
3837.751, 1.594052
3839.679, 2.679620
3841.608, -2.389222
3843.536, 0.4813364
3845.465, 0.8781540
3847.393, 3.550045
3849.322, 6.930423
3851.250, 4.881980
3853.179, 0.3385811
3855.107, 2.704272
3857.036, 3.089684
3858.964, -2.340686
3860.893, 2.512446
3862.821, 3.149904
3864.750, -1.735781
3866.678, -2.919159
3868.606, 0.3281529
3870.535, 1.049750
3872.463, -0.2290309
3874.392, 6.887204
3876.320, -3.315734
3878.249, -1.377495
3880.177, -3.316210
3882.106, 0.1689176
3884.034, 1.561141
3885.963, -3.824620
3887.891, -1.450643
3889.820, 1.155775
3891.748, 1.766605
3893.677, -2.153438
3895.605, -0.2326471
3897.533, 2.993167
3899.462, -1.421638
3901.390, -2.974866
3903.319, 2.216060
3905.247, 0.2598888
3907.176, 2.605519
3909.104, -3.254836
3911.033, -1.102491
3912.961, 1.185736
3914.890, -0.7288212
3916.818, 1.225819
3918.747, 3.159892
3920.675, 0.9925637
3922.604, 0.2747194
3924.532, 1.304879
3926.460, -3.265874
3928.389, -1.754229
3930.317, -1.383303
3932.246, -1.233134
3934.174, 3.649591
3936.103, 4.811004
3938.031, 0.5263132
3939.960, -3.042278
3941.888, -5.124084
3943.817, -0.6225341
3945.745, 3.908242
3947.674, -2.453438
3949.602, -1.354062
3951.531, 0.8884919
3953.459, 0.9400468
3955.387, -1.421815
3957.316, -0.9302967
3959.244, 1.732657
3961.173, -4.809980
3963.101, -0.2558278
3965.030, -7.726465
3966.958, 2.285553
3968.887, 5.356866
3970.815, 3.218408
3972.744, 4.633508
3974.672, 1.431642
3976.601, -0.6154988
3978.529, 3.460026
3980.458, 1.263319
3982.386, -3.4595650E-02
3984.314, -0.7627602
3986.243, 10.45791
3988.171, 2.923746
3990.100, -1.553220
3992.028, 3.268528
3993.957, 1.027546
3995.885, -1.746446
3997.814, 2.896899
3999.742, 8.060930
4001.671, 8.843110
4003.599, 5.394759
4005.528, -1.566723
4007.456, -3.625910
4009.385, -2.512184
4011.313, 4.622792
4013.241, 9.0645358E-02
4015.170, 1.963824
4017.098, 1.661701
4019.027, -1.961110
4020.955, -1.155667
4022.884, -1.095706
4024.812, -1.227692
4026.741, -3.302280
4028.669, -3.684412
4030.598, -0.5400045
4032.526, -0.7069492
4034.455, -2.108553
4036.383, -0.6557038
4038.312, -1.363827
4040.240, -1.190927
4042.168, -0.5978756
4044.097, -1.916147
4046.025, 6.081375
4047.954, 24.77908
4049.882, 4.440863
4051.811, 5.357555
4053.739, 4.319074
4055.668, -3.164331
4057.596, -0.8032767
4059.525, -2.616256
4061.453, -6.908779
4063.382, -2.278389
4065.310, 1.054426
4067.239, 1.277295
4069.167, 2.933191
4071.095, -0.5935524
4073.024, -2.683164
4074.952, 6.003590
4076.881, -3.468530
4078.809, -3.126448
4080.738, 3.800021
4082.666, 7.018479
4084.595, 2.396777
4086.523, -1.977156
4088.452, 1.517324
4090.380, -6.2608749E-02
4092.309, -2.267582
4094.237, 0.4158980
4096.166, 0.5659692
4098.094, 0.7294309
4100.022, 5.853070
4101.951, 7.117770
4103.879, 3.019152
4105.808, -2.840523
4107.736, -2.631513
4109.665, -1.657052
4111.593, 1.001531
4113.521, -2.535706
4115.450, 0.9276577
4117.379, -2.666316
4119.307, -2.759582
4121.235, 1.962164
4123.164, 1.112439
4125.093, -0.3248834
4127.021, 0.2468841
4128.949, -4.507302
4130.878, -1.151268
4132.807, 2.202909
4134.735, -1.068219
4136.663, 1.004189
4138.592, -3.2587911E-03
4140.521, 2.340563
4142.449, -1.245348
4144.377, 4.775001
4146.306, 7.180104
4148.234, 4.467079
4150.163, 1.555032
4152.091, -1.225170
4154.020, -2.548022
4155.948, 1.117700
4157.876, 0.6704269
4159.805, -4.215307
4161.733, 4.577206
4163.662, -1.290664
4165.590, -1.337519
4167.519, 3.677338
4169.447, 0.3544643
4171.376, 1.608134
4173.304, -3.477600
4175.232, -0.9976042
4177.161, 0.8621043
4179.090, 3.138247
4181.018, -2.060185
4182.946, -2.761604
4184.875, 0.7866020
4186.804, -2.373550
4188.732, 4.0426660E-02
4190.660, 1.715023
4192.589, 3.343487
4194.518, 6.358905
4196.446, 1.407049
4198.374, 1.388860
4200.303, 1.654692
4202.231, 0.9745700
4204.160, -5.509119
4206.088, -4.320207
4208.017, -2.803365
4209.945, -5.801737
4211.874, 0.6332661
4213.802, -0.2989326
4215.730, 5.186998
4217.659, 0.4019897
4219.587, 7.480001
4221.516, 2.301375
4223.444, -7.320774
4225.373, -2.989185
4227.301, -1.020756
4229.229, -0.6466951
4231.158, -0.1685027
4233.087, -0.1371549
4235.015, 5.028738
4236.943, 7.375647
4238.872, 3.787319
4240.801, 0.6417832
4242.729, -5.301781
4244.657, -5.948274
4246.586, 1.611442
4248.515, -2.289826
4250.443, 1.216506
4252.371, 0.1275506
4254.300, 4.423146
4256.229, 4.584910
4258.157, 0.2237310
4260.085, 2.907096
4262.014, -1.465331
4263.942, 5.047136
4265.871, 8.886663
4267.799, 8.269279
4269.728, 4.024102
4271.656, 2.440428
4273.584, -3.872398
4275.513, -0.1365574
4277.441, 1.949700
4279.370, 8.517463
4281.298, 3.507417
4283.227, -3.396050
4285.155, -2.881684
4287.084, -0.6119882
4289.012, 0.7597386
4290.940, -3.882356
4292.869, -5.698815
4294.798, 1.247199
4296.726, 8.776867
4298.654, 4.982891
4300.583, 1.157011
4302.512, -0.4965425
4304.440, -2.871767
4306.368, -0.1645562
4308.297, 0.6851256
4310.226, -1.694144
4312.154, -4.734182
4314.082, -7.486098
4316.011, -3.888996
4317.939, 1.135188
4319.868, 1.704301
