146.7885,0.088073999,
149.01554403131115,0.44183305068213025,
151.2425880626223,2.371938083681099,
153.46963209393346,6.1230138897761055,
155.6966761252446,12.775125164790195,
157.92372015655576,19.542867633571387,
160.1507641878669,28.446461388202472,
162.3778082191781,38.62262188265951,
164.60485225048924,46.43528958566455,
166.8318962818004,45.770806078019724,
169.05894031311155,43.54610474003778,
171.2859843444227,35.748085069686525,
173.51302837573385,26.7174254710008,
175.740072407045,21.206603421670557,
177.96711643835616,12.749798421063122,
180.1941604696673,9.8522627445845,
182.42120450097846,8.422100923773662,
184.6482485322896,5.0444267926143445,
186.8752925636008,7.413787314626028,
189.10233659491195,4.6190108423746326,
191.3293806262231,8.896448826716204,
193.55642465753425,15.167181279163934,
195.7834686888454,20.44143096427443,
198.01051272015656,27.081871966677117,
200.2375567514677,35.54840647817698,
202.46460078277886,46.35337012512527,
204.69164481409,56.161672385446316,
206.91868884540116,60.50686141820012,
209.14573287671232,63.99827673454893,
211.37277690802347,63.20098150509169,
213.59982093933462,60.59514439314751,
215.82686497064577,61.5878249965923,
218.05390900195692,58.537973649834356,
220.28095303326808,47.880374599589125,
222.50799706457923,33.039576585393185,
224.73504109589038,17.112595625900575,
226.96208512720156,5.952401832647501,
229.1891291585127,0.7501219758127566,
231.41617318982387,3.0499890002508616,
233.64321722113502,3.7951690844539243,
235.87026125244617,1.6991421481718738,
238.09730528375732,1.078580799912851,
240.3243493150685,6.34288904581271,
242.55139334637965,10.33402127564344,
244.7784373776908,17.138119415501603,
247.00548140900196,25.213850423449088,
249.2325254403131,32.49307868420168,
251.45956947162426,42.12885471404657,
253.68661350293542,54.08802139391386,
255.91365753424657,61.38388868153877,
258.1407015655577,66.73825980094425,
260.3677455968689,68.41540793711309,
262.59478962818,64.63329218824121,
264.8218336594912,61.184999801853515,
267.0488776908023,55.746831132614105,
269.2759217221135,57.0693904073746,
271.50296575342463,62.18215911383684,
273.7300097847358,71.55290385144308,
275.95705381604694,84.96463743428009,
278.1840978473581,101.5174695594249,
280.41114187866924,124.95495068282084,
282.6381859099804,145.0606238754859,
284.86522994129155,156.34933216492908,
287.0922739726027,155.57859704972293,
289.31931800391385,137.68049330336137,
291.546362035225,119.88442795929956,
293.77340606653615,107.07667007230698,
296.0004500978473,103.27697656274674,
298.22749412915846,100.49282336959438,
300.4545381604696,94.55329619536363,
302.68158219178076,81.42572279362857,
304.90862622309197,63.812927066434526,
307.1356702544031,44.17313628425229,
309.3627142857143,29.65432831812537,
311.5897583170254,20.835292547380238,
313.8168023483366,13.751497503899909,
316.04384637964773,10.74761492666745,
318.2708904109589,6.663267745197565,
320.49793444227004,5.185748380764624,
322.7249784735812,3.4745167770619587,
324.95202250489234,0.7005025777170973,
327.1790665362035,1.1716799535791997,
329.40611056751465,2.51206303347913,
331.6331545988258,1.668200599525255,
333.860198630137,0.6421214883032238,
336.08724266144816,2.633783903125618,
338.3142866927593,0.05741279425101599,
340.54133072407046,1.8952455113379632,
342.7683747553816,3.5302317475172753,
344.99541878669277,8.091675158819607,
347.2224628180039,12.366153734383733,
349.44950684931507,18.428427655267267,
351.6765508806262,24.834844264504934,
353.9035949119374,32.06592566340761,
356.1306389432485,36.77081893549537,
358.3576829745597,44.91199796073279,
360.58472700587083,50.21747162720086,
362.811771037182,59.196409069173406,
365.03881506849314,71.28421006796744,
367.2658590998043,82.91682184365858,
369.49290313111544,97.45288047515936,
371.7199471624266,114.07565733843008,
373.94699119373774,130.80109782166292,
376.1740352250489,151.05690558539717,
378.40107925636005,173.7651232307724,
380.6281232876712,196.60138137145387,
382.85516731898235,210.5318676272795,
385.0822113502935,222.5732605692398,
387.30925538160466,218.97681750814343,
389.5362994129158,205.59144799639236,
391.76334344422696,183.1121060710426,
393.9903874755381,156.48647674175876,
396.21743150684927,134.43323600799067,
398.4444755381604,113.37366886651775,
400.67151956947157,97.21642774079193,
402.8985636007827,84.49088348194131,
405.12560763209393,75.46296856597294,
407.3526516634051,71.64565405476856,
409.57969569471624,71.22378734860247,
411.8067397260274,68.6542082980852,
414.03378375733854,63.17854443901464,
416.2608277886497,50.815750145232954,
418.48787181996084,36.10312338070044,
420.714915851272,24.579374731594655,
422.94195988258315,14.02251998753009,
425.1690039138943,9.199265512339178,
427.39604794520545,5.070242363664277,
429.6230919765166,1.167816019632817,
431.85013600782776,2.0719289782080392,
434.0771800391389,5.122011654052649,
436.30422407045006,5.76090766063121,
438.5312681017612,1.8855965531389527,
440.75831213307237,2.07317686249566,
442.9853561643835,13.0220111267766,
445.21240019569467,22.353999129162403,
447.4394442270058,24.190497707246248,
449.666488258317,25.992833659405914,
451.8935322896281,30.697232235863687,
454.1205763209393,41.932574501010684,
456.34762035225043,59.266069253981414,
458.5746643835616,79.38103693617772,
460.8017084148728,100.7556615067761,
463.02875244618394,121.23883332659508,
465.2557964774951,141.81668287657016,
467.48284050880625,165.78199734417765,
469.7098845401174,181.45438935901348,
471.93692857142855,171.1889293594837,
474.1639726027397,130.57784075889495,
476.39101663405086,90.44517074538959,
478.618060665362,82.1753368492217,
480.84510469667316,99.15925185335253,
483.0721487279843,139.83238905790085,
485.29919275929547,198.1594676986797,
487.5262367906066,272.951884282924,
489.75328082191777,371.943610399705,
491.9803248532289,518.8508058027244,
494.2073688845401,739.7610725485042,
496.4344129158512,1064.131019855236,
498.6614569471624,1422.8710419710467,
500.88850097847353,1540.2329665216766,
503.1155450097847,1252.4828371423116,
505.34258904109583,831.8247485640845,
507.569633072407,538.8496063864483,
509.79667710371814,365.5736870934858,
512.0237211350293,265.8481029378583,
514.2507651663404,203.6623897279162,
516.4778091976516,161.63366600087576,
518.7048532289627,131.6638084962201,
520.9318972602739,110.66824171178934,
523.158941291585,98.00020225245414,
525.3859853228962,92.96976885566716,
527.6130293542074,90.97523070307622,
529.8400733855185,87.34197120995863,
532.0671174168297,76.84863380081232,
534.2941614481408,56.75160124271751,
536.521205479452,38.08606121722108,
538.7482495107631,23.004447022773647,
540.9752935420743,14.349329377263242,
543.2023375733854,8.630185126941171,
545.4293816046966,3.3321652580335854,
547.6564256360077,1.5550950831003199,
549.8834696673189,1.2715485975484095,
552.11051369863,0.1282971530093312,
554.3375577299412,2.410914155910079,
556.5646017612523,1.0340105894287124,
558.7916457925635,2.5434695520069024,
561.0186898238746,1.8688822348527971,
563.2457338551858,0.7254567681709605,
565.4727778864969,0.1626800822758736,
567.6998219178081,1.4332981040055537,
569.9268659491192,3.319622163553142,
572.1539099804304,5.6422842174792835,
574.3809540117417,8.029918813384974,
576.6079980430528,11.468768833771474,
578.835042074364,14.547911880167094,
581.0620861056751,17.84345317875029,
583.2891301369863,15.889404852514566,
585.5161741682974,11.832119384684031,
587.7432181996086,6.975768632094406,
589.9702622309197,1.4812139592986155,
592.1973062622309,0.3212941203780253,
594.424350293542,0.7319002057542442,
596.6513943248532,0.5516412593874714,
598.8784383561643,0.08215404588909098,
601.1054823874755,0.08926498377840597,
603.3325264187866,0.13452701367147168,
605.5595704500978,1.0547933932513869,
607.786614481409,0.5049860456040554,
610.0136585127201,2.6663505776862197,
612.2407025440313,1.915560362524316,
614.4677465753424,2.8105580020600622,
616.6947906066536,1.7023221891708018,
618.9218346379647,2.1139316943879662,
621.1488786692759,2.0094086916429754,
623.375922700587,2.636672093836869,
625.6029667318982,4.753563438824179,
627.8300107632093,4.86230802296214,
630.0570547945205,6.019284328707483,
632.2840988258317,8.719289796335019,
634.5111428571429,8.664193837585568,
636.738186888454,9.430824162465596,
638.9652309197652,9.22689959972578,
641.1922749510763,10.300766115875957,
643.4193189823875,12.486140820708156,
645.6463630136986,12.335279167171066,
647.8734070450098,12.566958095746795,
650.100451076321,12.225566566456843,
652.3274951076321,10.67490988745832,
654.5545391389433,8.729312160876376,
656.7815831702544,7.8783869040913,
659.0086272015654,7.392678296144506,
661.2356712328767,5.552434673346909,
663.4627152641879,6.432205817983208,
665.689759295499,5.556007798483157,
667.9168033268102,5.41788543702474,
670.1438473581213,5.50798719815579,
672.3708913894325,6.700629050177636,
674.5979354207436,6.528650012423234,
676.8249794520548,7.347210004673214,
679.0520234833659,10.410963997672443,
681.2790675146771,9.780404726681743,
683.5061115459882,10.485209316627113,
685.7331555772994,14.222763270317634,
687.9601996086105,16.79577611708552,
690.1872436399217,19.73706709850612,
692.4142876712328,21.50096341059236,
694.641331702544,27.09025389721093,
696.8683757338551,33.412131862359196,
699.0954197651663,37.66771531060087,
701.3224637964775,40.47653199136924,
703.5495078277886,41.795064112848614,
705.7765518590998,40.010360989991305,
708.0035958904109,36.595744189718054,
710.2306399217221,33.538764051168876,
712.4576839530332,29.61089908683928,
714.6847279843444,26.38742217573005,
716.9117720156555,24.437049587786724,
719.1388160469667,20.567376432413507,
721.3658600782778,18.008829074523582,
723.592904109589,13.13242158518825,
725.8199481409001,9.724557110444012,
728.0469921722113,6.160722015602048,
730.2740362035224,3.6734264265617464,
732.5010802348336,0.8319037886546929,
734.7281242661447,1.5684856903820812,
736.9551682974559,0.638679433327626,
739.182212328767,0.9507978294901875,
741.4092563600782,0.5040033449080852,
743.6363003913893,0.32795372437656556,
745.8633444227005,0.5315265579126891,
748.0903884540116,0.6156507579681499,
750.3174324853228,0.8738071869145261,
752.544476516634,1.4760885252243106,
754.7715205479451,0.8699957298512613,
756.9985645792563,0.5336104304378648,
759.2256086105674,0.3896276587735575,
761.4526526418786,0.9688329314782715,
763.6796966731897,1.1935466248011355,
765.9067407045009,4.4702689167182745,
768.133784735812,4.752492196609252,
770.3608287671232,7.5005071166784605,
772.5878727984343,10.201386461050912,
774.8149168297456,10.38265088000936,
777.0419608610567,12.303956358556047,
779.2690048923679,14.010069847194993,
781.496048923679,15.351964606278562,
783.7230929549902,14.406490275750546,
785.9501369863013,12.504681686144881,
788.1771810176125,9.937630159335136,
790.4042250489236,6.59404361732946,
792.6312690802348,4.379305164854054,
794.858313111546,2.1692894473049225,
797.0853571428571,1.0344108944202175,
799.3124011741683,0.15475259396857277,
801.5394452054794,0.3308982826759639,
803.7664892367906,0.6094825542129103,
805.9935332681017,0.594731912230836,
808.2205772994129,0.27121215424228573,
810.447621330724,0.20137562274635135,
812.6746653620352,0.5816407591846705,
814.9017093933463,1.89436915404885,
817.1287534246575,3.3514910196344103,
819.3557974559686,4.424178611329402,
821.5828414872798,7.5593258697982115,
823.8098855185909,9.827235778843045,
826.0369295499021,13.265569396045734,
828.2639735812132,16.252981161000015,
830.4910176125244,22.14959080134562,
832.7180616438355,28.083392454245235,
834.9451056751467,33.632771801365394,
837.1721497064578,34.46546629738782,
839.399193737769,33.1973677602233,
841.6262377690801,26.235013123110964,
843.8532818003913,17.404696761591595,
846.0803258317025,12.427167018768388,
848.3073698630136,9.53873103686786,
850.5344138943248,8.049402851570523,
852.7614579256359,6.119719441597106,
854.9885019569471,4.982339751591837,
857.2155459882582,3.7777800457769755,
859.4425900195694,3.6894183808538967,
861.6696340508805,2.9214884278290554,
863.8966780821917,3.311964208327355,
866.1237221135028,3.731059772417104,
868.350766144814,3.6847157821973187,
870.5778101761251,2.9303166609900413,
872.8048542074363,2.9773418672866976,
875.0318982387474,2.3952309648108487,
877.2589422700586,2.541454654144833,
879.4859863013697,3.095895519397258,
881.7130303326809,1.8742636599452784,
883.940074363992,3.1170768584156012,
886.1671183953032,2.615644796476342,
888.3941624266145,4.020583763281322,
890.6212064579256,2.333519003849356,
892.8482504892368,2.111616279212635,
895.0752945205479,2.5808673660420434,
897.3023385518591,2.7610807071552927,
899.5293825831702,1.5281049324006877,
901.7564266144814,1.9248320999630173,
903.9834706457925,1.3462605787596515,
906.2105146771037,0.7709007960466717,
908.4375587084148,2.5015784780199755,
910.664602739726,1.101210063529178,
912.8916467710371,1.0796315107623984,
915.1186908023483,1.0640915333965777,
917.3457348336594,0.16315746590077745,
919.5727788649706,0.07093914011032632,
921.7998228962817,1.3182915998293165,
924.0268669275929,0.289484108634473,
926.253910958904,1.1592537116240442,
928.4809549902152,0.29684202518291936,
930.7079990215263,0.37369139614437613,
932.9350430528375,0.11604792018593826,
935.1620870841487,0.3449850650597074,
937.3891311154598,0.8390684236127309,
939.616175146771,0.2850665829114552,
941.8432191780821,0.8969941740917895,
944.0702632093933,0.3185145854810665,
946.2973072407044,0.38516018004643837,
948.5243512720156,0.27387828535141034,
950.7513953033267,3.121742131561093,
952.9784393346379,6.2736622778448226,
955.205483365949,6.895745755354399,
957.4325273972602,9.02402753291095,
959.6595714285713,11.798561721930463,
961.8866154598825,15.272618910799155,
964.1136594911936,13.873586157151331,
966.3407035225048,12.651291124747413,
968.5677475538159,11.826370974195223,
970.7947915851271,9.61773279714553,
973.0218356164382,7.399016419993,
975.2488796477494,4.488560097104409,
977.4759236790605,4.2844466346051755,
979.7029677103717,2.9504740052352356,
981.9300117416828,2.0761448285986766,
984.157055772994,2.6798441502085484,
986.3840998043052,2.7542050495927133,
988.6111438356163,3.0037513511603975,
990.8381878669275,2.963109207882284,
993.0652318982386,4.1348298561470616,
995.2922759295498,3.4934983593465705,
997.5193199608609,4.631461918259037,
999.7463639921721,6.086258323520402,
1001.9734080234833,9.142076957824123,
1004.2004520547945,12.942702026942463,
1006.4274960861056,15.178396724098658,
1008.6545401174168,19.398490522853955,
1010.8815841487279,21.901086262068794,
1013.1086281800391,23.435375281564944,
1015.3356722113502,25.296860815198485,
1017.5627162426614,26.75671354187138,
1019.7897602739725,26.401914813420074,
1022.0168043052837,27.59792271138683,
1024.243848336595,29.49693480318887,
1026.470892367906,31.822438568464595,
1028.6979363992173,32.40610862256511,
1030.9249804305282,32.355904960211696,
1033.1520244618396,32.384080213579324,
1035.3790684931505,31.578427002751337,
1037.6061125244619,27.755789279502373,
1039.8331565557728,23.33642916527897,
1042.0602005870842,20.954387975574562,
1044.287244618395,17.01809307265088,
1046.5142886497065,15.427020522265275,
1048.7413326810174,13.771473786733498,
1050.9683767123288,11.760260600380791,
1053.1954207436397,10.326719972148,
1055.422464774951,9.377731557914647,
1057.649508806262,8.356047419615265,
1059.8765528375734,5.368736345654797,
1062.1035968688843,4.69594961004025,
1064.3306409001957,2.745398820479591,
1066.5576849315066,0.7451597753653563,
1068.784728962818,0.32844592615259505,
1071.011772994129,2.2924805357489433,
1073.2388170254403,2.7624966753944924,
1075.4658610567512,0.9666140423789946,
1077.6929050880626,0.4760205505740907,
1079.9199491193735,0.27929037428041964,
1082.146993150685,3.2315280334792216,
1084.3740371819958,4.764406324739232,
1086.6010812133072,6.146669427387917,
1088.8281252446181,7.692780695787732,
1091.0551692759295,9.746047598180324,
1093.2822133072405,10.90454469083872,
1095.5092573385518,13.719926697001942,
1097.7363013698628,13.563510409257379,
1099.9633454011741,15.29467522040012,
1102.190389432485,18.46047901751524,
1104.4174334637964,22.588696125731893,
1106.6444774951074,25.295564763745286,
1108.8715215264187,33.20812218079798,
1111.0985655577297,41.30475070052097,
1113.325609589041,56.04931046893613,
1115.552653620352,72.29896722969845,
1117.7796976516634,93.86728670199582,
1120.0067416829745,128.05144469756496,
1122.2337857142857,170.98944328601007,
1124.4608297455968,214.2125567522795,
1126.687873776908,209.65609817007362,
1128.9149178082191,158.4059647757627,
1131.1419618395303,106.84124540482135,
1133.3690058708414,75.70416310314306,
1135.5960499021526,61.74355564946677,
1137.8230939334637,51.44400428904371,
1140.0501379647749,47.91259518783879,
1142.277181996086,44.77312077750079,
1144.5042260273972,41.382525527624786,
1146.7312700587083,41.751734740440966,
1148.9583140900195,36.449948658740084,
1151.1853581213306,32.18794147775902,
1153.4124021526418,27.794620420683238,
1155.639446183953,22.502467535259584,
1157.866490215264,17.726693138992268,
1160.0935342465752,11.65816250829622,
1162.3205782778864,9.157497934523693,
1164.5476223091975,6.105612747180463,
1166.7746663405087,1.3096776846574487,
1169.0017103718199,0.31507054857038813,
1171.228754403131,0.7718591603810752,
1173.4557984344424,0.9151339174349672,
1175.6828424657533,2.614142467984236,
1177.9098864970647,0.6203076689105574,
1180.1369305283756,0.8238362020861493,
1182.363974559687,2.4387248565013944,
1184.591018590998,5.770655420088994,
1186.8180626223093,7.2955622032061775,
1189.0451066536202,10.44608523699678,
1191.2721506849316,13.992044415960892,
1193.4991947162425,14.30778632075666,
1195.726238747554,20.94396693335836,
1197.9532827788648,24.1146803632931,
1200.1803268101762,27.983218413817205,
1202.4073708414871,31.41923187211204,
1204.6344148727985,34.60545438445521,
1206.8614589041094,40.297346593389456,
1209.0885029354208,44.57229904295968,
1211.3155469667317,48.42655400664614,
1213.5425909980431,50.27186542276933,
1215.769635029354,54.90629192022307,
1217.9966790606654,56.6809524912786,
1220.2237230919764,58.661709143855894,
1222.4507671232877,59.47228425396464,
1224.6778111545987,60.6354575676813,
1226.90485518591,60.74181410150938,
1229.131899217221,55.84236681074412,
1231.3589432485323,52.305931981835236,
1233.5859872798433,47.370562528705136,
1235.8130313111546,42.86035911446115,
1238.0400753424656,39.20550642119771,
1240.267119373777,34.910055823623026,
1242.4941634050879,28.675757771754665,
1244.7212074363993,26.114360518672044,
1246.9482514677102,21.908873627402894,
1249.1752954990216,18.031392117197495,
1251.4023395303325,14.952381439818154,
1253.6293835616439,11.666740119081506,
1255.8564275929548,9.731917932388031,
1258.0834716242662,6.87869377087883,
1260.310515655577,5.395193668989782,
1262.5375596868885,3.941119394804129,
1264.7646037181994,2.8971388183648146,
1266.9916477495108,0.779756847896983,
1269.2186917808217,0.005563266923897049,
1271.445735812133,0.3894693006122099,
1273.672779843444,0.7850823008890717,
1275.8998238747554,1.5325914528570401,
1278.1268679060663,1.5749788676884053,
1280.3539119373777,1.1844764027331773,
1282.5809559686886,0.47485553576510475,
1284.808,0.11470508713695338,
