146.7885,33.45562587637434,
149.01554403131115,5.294063380672447,
151.2425880626223,9.219939646889303,
153.46963209393346,18.093236777881017,
155.6966761252446,13.628576933007938,
157.92372015655576,10.440456281995266,
160.1507641878669,1.608524627972829,
162.3778082191781,26.48271191823465,
164.60485225048924,70.44974943677178,
166.8318962818004,135.04642345162983,
169.05894031311155,217.85733105664158,
171.2859843444227,301.4824186991762,
173.51302837573385,368.42279395453073,
175.740072407045,428.67835256984245,
177.96711643835616,500.48148655198537,
180.1941604696673,585.8024114343594,
182.42120450097846,688.9887383649316,
184.6482485322896,837.181816815581,
186.8752925636008,1005.3879751310631,
189.10233659491195,1085.687259238873,
191.3293806262231,995.3515421223426,
193.55642465753425,769.6302202899948,
195.7834686888454,536.2067313463874,
198.01051272015656,367.343858255488,
200.2375567514677,260.5066532478379,
202.46460078277886,193.6638069572904,
204.69164481409,158.27903249092458,
206.91868884540116,123.66892108396456,
209.14573287671232,99.03862978365207,
211.37277690802347,72.7731423821623,
213.59982093933462,54.63603883213039,
215.82686497064577,31.805250531712627,
218.05390900195692,22.323319093106655,
220.28095303326808,9.148248221593162,
222.50799706457923,3.8277103643627868,
224.73504109589038,0.560569135457591,
226.96208512720156,5.460952489089036,
229.1891291585127,7.0366838881941565,
231.41617318982387,19.290367201204333,
233.64321722113502,26.839057543201132,
235.87026125244617,42.505557367680694,
238.09730528375732,59.14614984326952,
240.3243493150685,77.00472673136261,
242.55139334637965,92.2721108418039,
244.7784373776908,108.59655040034004,
247.00548140900196,129.82550048783636,
249.2325254403131,151.1907182625134,
251.45956947162426,163.54564054777472,
253.68661350293542,175.26058476008623,
255.91365753424657,169.63297808276005,
258.1407015655577,159.32338131346793,
260.3677455968689,153.5331008976141,
262.59478962818,147.1605879259892,
264.8218336594912,144.61928660244175,
267.0488776908023,147.53635197151672,
269.2759217221135,158.64351534882243,
271.50296575342463,178.36548476869174,
273.7300097847358,194.80755397216382,
275.95705381604694,212.8134163962532,
278.1840978473581,229.9799924542857,
280.41114187866924,252.7631458523554,
282.6381859099804,275.87585079371826,
284.86522994129155,297.78403791590154,
287.0922739726027,312.3155339666923,
289.31931800391385,331.3947218578534,
291.546362035225,346.5502272449585,
293.77340606653615,356.0397112696129,
296.0004500978473,362.6274205010609,
298.22749412915846,361.39648687262365,
300.4545381604696,353.1354319881102,
302.68158219178076,326.5110064930718,
304.90862622309197,283.6497898877668,
307.1356702544031,238.55828586723672,
309.3627142857143,190.8927152458004,
311.5897583170254,145.9419535277214,
313.8168023483366,109.18023915993005,
316.04384637964773,81.13989099084239,
318.2708904109589,55.067538395262936,
320.49793444227004,36.657119937724346,
322.7249784735812,18.274501976127166,
324.95202250489234,3.1430662421743993,
327.1790665362035,2.815882751723425,
329.40611056751465,9.39444079861957,
331.6331545988258,11.90739022362615,
333.860198630137,11.478243248601297,
336.08724266144816,15.011319149375426,
338.3142866927593,8.718579332091915,
340.54133072407046,5.0229613691949995,
342.7683747553816,0.9305334402137312,
344.99541878669277,7.079843991226077,
347.2224628180039,16.662569748856363,
349.44950684931507,23.57313784174132,
351.6765508806262,33.55845214912244,
353.9035949119374,41.006780458719575,
356.1306389432485,54.889293850655825,
358.3576829745597,64.76770137252582,
360.58472700587083,67.88019255350144,
362.811771037182,72.6808761610347,
365.03881506849314,75.25030955673365,
367.2658590998043,83.82245547696377,
369.49290313111544,94.0366931934406,
371.7199471624266,87.27901570520146,
373.94699119373774,71.48037384008984,
376.1740352250489,55.80118478511745,
378.40107925636005,46.41956400756483,
380.6281232876712,54.25101659273203,
382.85516731898235,67.33366044151258,
385.0822113502935,84.195079514886,
387.30925538160466,107.94423355240852,
389.5362994129158,134.9130591155533,
391.76334344422696,161.08442671969544,
393.9903874755381,193.8223542188017,
396.21743150684927,226.82236276080886,
398.4444755381604,259.12719030688004,
400.67151956947157,291.6941656029492,
402.8985636007827,316.73215743451124,
405.12560763209393,329.57198205125087,
407.3526516634051,322.1123840151395,
409.57969569471624,301.50349860712146,
411.8067397260274,257.02018457043386,
414.03378375733854,212.33745488410776,
416.2608277886497,172.67746331395884,
418.48787181996084,134.1542127807606,
420.714915851272,106.81358340848116,
422.94195988258315,85.89529462725253,
425.1690039138943,67.71003947824516,
427.39604794520545,57.818852566142006,
429.6230919765166,49.263170360385246,
431.85013600782776,43.44235407199679,
434.0771800391389,44.14572649303396,
436.30422407045006,41.99286044852689,
438.5312681017612,42.519275236532444,
440.75831213307237,49.85222807239678,
442.9853561643835,58.97684927795896,
445.21240019569467,71.83011912971627,
447.4394442270058,95.78419637970796,
449.666488258317,127.47730578425745,
451.8935322896281,168.13006299737947,
454.1205763209393,218.1211074970833,
456.34762035225043,273.6438541602675,
458.5746643835616,330.10505886405195,
460.8017084148728,384.6929615201112,
463.02875244618394,443.35954521741286,
465.2557964774951,504.91910896128314,
467.48284050880625,569.6540758157527,
469.7098845401174,628.0304509735008,
471.93692857142855,636.3896762201085,
474.1639726027397,586.840587898833,
476.39101663405086,485.16875067770843,
478.618060665362,370.9993594821825,
480.84510469667316,273.7324934069857,
483.0721487279843,196.51339987863068,
485.29919275929547,143.30855389922147,
487.5262367906066,99.80371393548599,
489.75328082191777,66.23864249968075,
491.9803248532289,46.03231952868895,
494.2073688845401,27.22001907013785,
496.4344129158512,13.062624524684413,
498.6614569471624,5.932472655559771,
500.88850097847353,0.4649224108103392,
503.1155450097847,1.7965333192216875,
505.34258904109583,7.316303273239592,
507.569633072407,7.5535693877589445,
509.79667710371814,5.663579556172376,
512.0237211350293,7.87144416333036,
514.2507651663404,6.558600019398677,
516.4778091976516,0.8803367223592464,
518.7048532289627,0.858131349157339,
520.9318972602739,5.507666693089365,
523.158941291585,9.423029265308527,
525.3859853228962,16.062812331624695,
527.6130293542074,21.884329135541346,
529.8400733855185,30.383134123256266,
532.0671174168297,39.89996516336488,
534.2941614481408,50.08362810020618,
536.521205479452,61.33784246043967,
538.7482495107631,75.62492710724513,
540.9752935420743,90.41768866008935,
543.2023375733854,102.78249738107579,
545.4293816046966,121.42614152981102,
547.6564256360077,136.644587829671,
549.8834696673189,152.85173452698496,
552.11051369863,165.5545285608333,
554.3375577299412,174.72066921414813,
556.5646017612523,178.33019854612854,
558.7916457925635,173.36562748741605,
561.0186898238746,163.70831336045705,
563.2457338551858,150.21972831330493,
565.4727778864969,133.64301956549505,
567.6998219178081,118.5359541543432,
569.9268659491192,101.1968749662513,
572.1539099804304,84.4809819610269,
574.3809540117417,69.24741533097006,
576.6079980430528,56.753597581177736,
578.835042074364,47.78837741480419,
581.0620861056751,38.689018785227546,
583.2891301369863,33.693787886387526,
585.5161741682974,25.682519865278387,
587.7432181996086,20.56278727828487,
589.9702622309197,19.23421355147141,
592.1973062622309,15.465725924289085,
594.424350293542,9.466813307736826,
596.6513943248532,7.704127526203169,
598.8784383561643,7.6193359755606815,
601.1054823874755,6.388587120686603,
603.3325264187866,5.434889695588216,
605.5595704500978,5.055906943594435,
607.786614481409,3.843673262570109,
610.0136585127201,0.6631359605180891,
612.2407025440313,2.6180488947430036,
614.4677465753424,1.823787844468624,
616.6947906066536,1.024259123939622,
618.9218346379647,0.08303960200519041,
621.1488786692759,3.2871807726773317,
623.375922700587,0.852211998068877,
625.6029667318982,0.37982511231571764,
627.8300107632093,0.8376681658737228,
630.0570547945205,2.2977417655405032,
632.2840988258317,1.8099268619376057,
634.5111428571429,0.8050657493110523,
636.738186888454,0.10684935328954076,
638.9652309197652,1.52241993047501,
641.1922749510763,0.3603747648906849,
643.4193189823875,1.708904214645962,
645.6463630136986,0.6665903545163424,
647.8734070450098,4.529741036994494,
650.100451076321,3.189762265254629,
652.3274951076321,5.6357051548399815,
654.5545391389433,5.953671803500339,
656.7815831702544,6.255694193246681,
659.0086272015654,8.831612263819686,
661.2356712328767,8.010809991381869,
663.4627152641879,11.993107189785743,
665.689759295499,10.408104894758303,
667.9168033268102,10.96745023804858,
670.1438473581213,10.79944650098582,
672.3708913894325,11.286828888558738,
674.5979354207436,11.359848737365214,
676.8249794520548,13.335092078662754,
679.0520234833659,11.689920435630812,
681.2790675146771,14.212145279763064,
683.5061115459882,15.184672268037254,
685.7331555772994,15.55565309628238,
687.9601996086105,20.284922759104724,
690.1872436399217,22.26311647566839,
692.4142876712328,26.461409129948052,
694.641331702544,33.50171463507505,
696.8683757338551,41.310441794423916,
699.0954197651663,53.022477906849694,
701.3224637964775,72.09808279171196,
703.5495078277886,94.37328690265277,
705.7765518590998,116.97824434866023,
708.0035958904109,141.49070307728965,
710.2306399217221,168.3283022497986,
712.4576839530332,194.74705988160872,
714.6847279843444,219.4126196516292,
716.9117720156555,241.07714437285298,
719.1388160469667,257.03797094018637,
721.3658600782778,260.08695663971776,
723.592904109589,247.3194613261619,
725.8199481409001,225.89778860278284,
728.0469921722113,197.383111855139,
730.2740362035224,167.42355957948223,
732.5010802348336,136.9004020391469,
734.7281242661447,111.07404459952085,
736.9551682974559,85.40086152346078,
739.182212328767,64.2009148687815,
741.4092563600782,48.52409922537259,
743.6363003913893,32.18249159430966,
745.8633444227005,23.10817494964761,
748.0903884540116,15.803496527324501,
750.3174324853228,6.197807871875261,
752.544476516634,3.3228579891914474,
754.7715205479451,4.865410953891642,
756.9985645792563,3.196469657212539,
759.2256086105674,7.125934640368348,
761.4526526418786,8.067486969691458,
763.6796966731897,8.853464358764473,
765.9067407045009,3.610021947429005,
768.133784735812,2.0036852937601317,
770.3608287671232,3.142417425367752,
772.5878727984343,8.763359524506795,
774.8149168297456,17.80927833840122,
777.0419608610567,22.6047141360659,
779.2690048923679,34.063116485414554,
781.496048923679,45.300423260583955,
783.7230929549902,53.38381580128286,
785.9501369863013,63.329070142072375,
788.1771810176125,75.17748246173456,
790.4042250489236,82.54035077430285,
792.6312690802348,91.42333852761442,
794.858313111546,94.80010173587415,
797.0853571428571,104.9584308145909,
799.3124011741683,113.07907927174413,
801.5394452054794,118.18305438714108,
803.7664892367906,121.7340423330171,
805.9935332681017,130.952286222215,
808.2205772994129,137.4017439715594,
810.447621330724,144.01316530995499,
812.6746653620352,152.59954664438933,
814.9017093933463,162.38212787912926,
817.1287534246575,174.40948832078794,
819.3557974559686,188.72812352172528,
821.5828414872798,202.27328494587337,
823.8098855185909,215.60846042956177,
826.0369295499021,229.26316646090467,
828.2639735812132,240.88258790033407,
830.4910176125244,256.03594573302695,
832.7180616438355,267.500144504209,
834.9451056751467,287.6400092558194,
837.1721497064578,307.78794168991533,
839.399193737769,333.74870509061964,
841.6262377690801,360.19320762929215,
843.8532818003913,377.4004407432251,
846.0803258317025,397.85856002286897,
848.3073698630136,413.18760810836113,
850.5344138943248,424.412053683987,
852.7614579256359,434.79271479486187,
854.9885019569471,442.0162806339757,
857.2155459882582,439.9881900897941,
859.4425900195694,429.3327423770378,
861.6696340508805,410.17376607223616,
863.8966780821917,387.40212713726993,
866.1237221135028,352.97238764196766,
868.350766144814,322.70573348912774,
870.5778101761251,286.2890039595626,
872.8048542074363,256.3358934790907,
875.0318982387474,224.0025104020217,
877.2589422700586,194.7108654346968,
879.4859863013697,166.31150372599487,
881.7130303326809,142.88132419455664,
883.940074363992,124.90277012325055,
886.1671183953032,110.29821915920805,
888.3941624266145,100.22831543366028,
890.6212064579256,84.37808436190592,
892.8482504892368,70.75976210584075,
895.0752945205479,62.15628834312226,
897.3023385518591,50.162852218328275,
899.5293825831702,36.9896554183086,
901.7564266144814,27.33150867883343,
903.9834706457925,18.552570713800716,
906.2105146771037,9.99501782807314,
908.4375587084148,8.51762019882774,
910.664602739726,5.786873164281285,
912.8916467710371,1.7019861803147611,
915.1186908023483,1.067883834484245,
917.3457348336594,3.7489905594912116,
919.5727788649706,2.3705600524547674,
921.7998228962817,3.401718443052879,
924.0268669275929,3.888483720417216,
926.253910958904,4.048337468259675,
928.4809549902152,5.602264571495431,
930.7079990215263,2.922323378451254,
932.9350430528375,2.0309234098818063,
935.1620870841487,0.5277253797577128,
937.3891311154598,1.085423476143474,
939.616175146771,0.25639056718748776,
941.8432191780821,1.433222547675215,
944.0702632093933,0.8625540018198744,
946.2973072407044,0.9445486198172391,
948.5243512720156,0.5512941486434395,
950.7513953033267,4.522955603274624,
952.9784393346379,2.8628782956268957,
955.205483365949,3.147507272044022,
957.4325273972602,4.546168155981397,
959.6595714285713,5.647650091059682,
961.8866154598825,6.475399363848297,
964.1136594911936,4.688964670404632,
966.3407035225048,7.388853567384472,
968.5677475538159,9.783205128043486,
970.7947915851271,8.013019673309115,
973.0218356164382,10.684308495992296,
975.2488796477494,9.801299754868909,
977.4759236790605,11.704823780816914,
979.7029677103717,12.53228774401881,
981.9300117416828,10.68576919659222,
984.157055772994,10.77206278973715,
986.3840998043052,11.982033642824398,
988.6111438356163,12.441187198926974,
990.8381878669275,12.021708005679479,
993.0652318982386,13.116796015822798,
995.2922759295498,10.973344658593682,
997.5193199608609,15.375399034917901,
999.7463639921721,13.086362455219785,
1001.9734080234833,11.262057959070624,
1004.2004520547945,13.978490599954533,
1006.4274960861056,10.754608970192049,
1008.6545401174168,10.56684056580943,
1010.8815841487279,9.594479243080807,
1013.1086281800391,10.022223129227596,
1015.3356722113502,7.419558447546114,
1017.5627162426614,6.3575865041090545,
1019.7897602739725,6.243311429972146,
1022.0168043052837,6.4035014738736225,
1024.243848336595,5.378903917245578,
1026.470892367906,6.638680883444152,
1028.6979363992173,2.821103219038005,
1030.9249804305282,8.154614860005315,
1033.1520244618396,4.006528757119321,
1035.3790684931505,4.2260731601771795,
1037.6061125244619,5.447018888208308,
1039.8331565557728,6.722461850805787,
1042.0602005870842,5.782617600971582,
1044.287244618395,6.41799894753596,
1046.5142886497065,4.47138962716299,
1048.7413326810174,5.625902591298348,
1050.9683767123288,6.226923085914827,
1053.1954207436397,5.881769489943276,
1055.422464774951,7.815559019676991,
1057.649508806262,6.923595616893175,
1059.8765528375734,6.728635899854616,
1062.1035968688843,5.873085062630219,
1064.3306409001957,6.239698948790438,
1066.5576849315066,7.551603016881228,
1068.784728962818,8.599266223077688,
1071.011772994129,8.68809638408912,
1073.2388170254403,8.923520531033036,
1075.4658610567512,8.408562641497834,
1077.6929050880626,9.134797180794187,
1079.9199491193735,8.55059092543281,
1082.146993150685,10.754751644546142,
1084.3740371819958,8.32933208690128,
1086.6010812133072,8.734318821018453,
1088.8281252446181,8.764528819789984,
1091.0551692759295,7.1837930007079045,
1093.2822133072405,9.038551421735201,
1095.5092573385518,8.014430007965707,
1097.7363013698628,7.4393139149096275,
1099.9633454011741,7.535344274609999,
1102.190389432485,7.158154891418601,
1104.4174334637964,5.677852421635071,
1106.6444774951074,4.716357794975399,
1108.8715215264187,6.2215598600418245,
1111.0985655577297,5.0851543086369215,
1113.325609589041,0.3448270573381266,
1115.552653620352,3.957578212926736,
1117.7796976516634,0.24153277875331652,
1120.0067416829745,0.2916646434498821,
1122.2337857142857,1.003606920421038,
1124.4608297455968,1.8013842403511504,
1126.687873776908,0.4431190516522801,
1128.9149178082191,1.821194262491087,
1131.1419618395303,0.3569272100616746,
1133.3690058708414,0.18735415984854425,
1135.5960499021526,0.38909830951841473,
1137.8230939334637,0.4420612694334556,
1140.0501379647749,0.8552866629583709,
1142.277181996086,0.3189879248442452,
1144.5042260273972,0.569694945745445,
1146.7312700587083,1.00759621109448,
1148.9583140900195,0.9310593037472288,
1151.1853581213306,0.43274526400522395,
1153.4124021526418,0.6404221071612942,
1155.639446183953,3.4061724737392307,
1157.866490215264,1.4250392283211253,
1160.0935342465752,2.151643993292747,
1162.3205782778864,2.6886596512147705,
1164.5476223091975,2.569102552045793,
1166.7746663405087,2.685847680703177,
1169.0017103718199,0.2805739128062516,
1171.228754403131,2.289884521029264,
1173.4557984344424,2.6561028863185046,
1175.6828424657533,3.370017705891548,
1177.9098864970647,1.8527154762688884,
1180.1369305283756,1.969823540818141,
1182.363974559687,4.555522888925272,
1184.591018590998,1.5048736758148522,
1186.8180626223093,1.1597813772034742,
1189.0451066536202,0.8949821812180749,
1191.2721506849316,3.0480232036605686,
1193.4991947162425,2.9145247205034295,
1195.726238747554,2.7891244401994495,
1197.9532827788648,3.917509497098748,
1200.1803268101762,3.336050525241907,
1202.4073708414871,5.574099552368768,
1204.6344148727985,3.0971412912116043,
1206.8614589041094,3.427480732350814,
1209.0885029354208,3.830672147656084,
1211.3155469667317,4.77539261474756,
1213.5425909980431,5.6940401062702275,
1215.769635029354,5.301994554250104,
1217.9966790606654,5.493761318743271,
1220.2237230919764,4.124203694038218,
1222.4507671232877,6.632788669357213,
1224.6778111545987,4.238503730416408,
1226.90485518591,5.393489249608292,
1229.131899217221,4.726377927562561,
1231.3589432485323,5.426270605983754,
1233.5859872798433,5.522188483084095,
1235.8130313111546,3.6442284536991107,
1238.0400753424656,5.146559098576097,
1240.267119373777,2.42310157910609,
1242.4941634050879,3.7235063394442407,
1244.7212074363993,4.318109078367149,
1246.9482514677102,1.9755833776020464,
1249.1752954990216,1.4917853091570212,
1251.4023395303325,3.5358667478336536,
1253.6293835616439,4.255705602341837,
1255.8564275929548,3.116271112455236,
1258.0834716242662,3.2217208580521453,
1260.310515655577,3.5615543226238855,
1262.5375596868885,3.615514654708457,
1264.7646037181994,4.156444195534937,
1266.9916477495108,1.170356096341125,
1269.2186917808217,3.6408309818117996,
1271.445735812133,2.8846415334321764,
1273.672779843444,3.9698045388665113,
1275.8998238747554,1.982484145514992,
1278.1268679060663,2.1531877452699675,
1280.3539119373777,1.7494262691187261,
1282.5809559686886,0.349035821660164,
1284.808,0.0,
